#Acq. time (s)=	30
#Accumulations=	1
#Range (cm-¹)=	1050...3000 (30 s) 
#Windows=	6
#Auto scanning=	Off
#Autofocus=	Off
#AutoExposure=	Off
#Spike filter=	Off
#Delay time (s)=	0
#Binning=	1
#Readout mode=	Signal
#DeNoise=	Off
#ICS correction=	Off
#Dark correction=	Off
#Inst. Process=	Off
#Detector Gain=	High Sensitivity
#Detector ADC=	45 kHz       
#Detector temperature (°C)=	-60.1
#Instrument=	LabRAM
#Detector=	Syncerity
#Objective=	x50LWD
#Grating=	1800
#Filter=	25%
#Laser (nm)=	532
#Hole=	100
#E-Cal_Neon=	0
#StageXY=	Marzhauser
#StageZ=	Marzhauser
#X (µm)=	0
#Y (µm)=	0
#Z (µm)=	-1678.85
#Spectral res.(cm-¹)=	1.9
#Full time(mm:ss)=	3:09
#AC=	Not calibrated
#Project=	
#Sample=	
#Site=	
#Title=	Spot 2 450K
#Remark=	
#Date=	19.02.2026 15:06
#Acquired=	19.02.2026 15:06:53
#Edit:Spike=	19.02.2026 15:07:26
#Edit:Spike=	19.02.2026 15:13:34
#AxisType[0]=Intens
#AxisUnit[0]=Cnt
#AxisType[1]=Spectr
#AxisUnit[1]=1/cm
1050.13	137
1050.59	105
1051.05	117
1051.51	97
1051.97	171
1052.44	99
1052.9	145
1053.36	91
1053.82	135
1054.28	143
1054.74	87
1055.2	175
1055.67	73
1056.13	149
1056.59	91
1057.05	137
1057.51	127
1057.97	145
1058.43	93
1058.89	141
1059.36	125
1059.82	91
1060.28	163
1060.74	69
1061.2	155
1061.66	89
1062.12	167
1062.58	153
1063.04	109
1063.5	123
1063.96	127
1064.43	119
1064.89	111
1065.35	137
1065.81	79
1066.27	149
1066.73	103
1067.19	125
1067.65	131
1068.11	95
1068.57	109
1069.03	129
1069.49	111
1069.95	143
1070.41	101
1070.87	131
1071.33	123
1071.79	123
1072.25	117
1072.71	143
1073.17	103
1073.63	113
1074.09	133
1074.55	105
1075.01	151
1075.47	101
1075.93	133
1076.39	115
1076.85	113
1077.31	141
1077.77	127
1078.23	125
1078.69	105
1079.15	141
1079.61	111
1080.07	159
1080.53	81
1080.99	133
1081.45	119
1081.91	133
1082.37	143
1082.83	79
1083.29	141
1083.75	97
1084.21	155
1084.66	107
1085.12	161
1085.58	71
1086.04	169
1086.5	125
1086.96	131
1087.42	157
1087.88	87
1088.34	165
1088.8	103
1089.25	131
1089.71	107
1090.17	131
1090.63	93
1091.09	119
1091.55	135
1092.01	129
1092.47	147
1092.92	99
1093.38	135
1093.84	103
1094.3	117
1094.76	139
1095.22	121
1095.68	103
1096.13	131
1096.59	115
1097.05	121
1097.51	123
1097.97	103
1098.43	127
1098.88	115
1099.34	107
1099.8	157
1100.26	83
1100.72	121
1101.17	129
1101.63	103
1102.09	147
1102.55	77
1103.01	147
1103.46	111
1103.92	123
1104.38	103
1104.84	133
1105.29	87
1105.75	131
1106.21	145
1106.67	99
1107.12	173
1107.58	55
1108.04	161
1108.5	127
1108.95	125
1109.41	127
1109.87	117
1110.33	105
1110.78	111
1111.24	161
1111.7	105
1112.16	149
1112.61	55
1113.07	163
1113.53	119
1113.98	135
1114.44	141
1114.9	99
1115.35	127
1115.81	137
1116.27	149
1116.72	113
1117.18	135
1117.64	69
1118.1	159
1118.55	125
1119.01	119
1119.47	119
1119.92	91
1120.38	131
1120.84	119
1121.29	133
1121.75	121
1122.2	123
1122.66	89
1123.12	149
1123.57	137
1124.03	137
1124.49	133
1124.94	105
1125.4	151
1125.86	133
1126.31	119
1126.77	169
1127.22	107
1127.68	113
1128.14	133
1128.59	125
1129.05	139
1129.5	99
1129.96	125
1130.41	125
1130.87	135
1131.33	79
1131.78	165
1132.24	93
1132.69	131
1133.15	139
1133.61	111
1134.06	131
1134.52	69
1134.97	141
1135.43	111
1135.88	143
1136.34	89
1136.79	157
1137.25	91
1137.7	155
1138.16	127
1138.61	95
1139.07	151
1139.52	49
1139.98	137
1140.43	121
1140.89	137
1141.34	91
1141.8	137
1142.25	95
1142.71	159
1143.16	129
1143.62	101
1144.07	155
1144.53	77
1144.98	137
1145.44	113
1145.89	143
1146.35	115
1146.8	101
1147.26	131
1147.71	145
1148.16	117
1148.62	129
1149.07	137
1149.53	95
1149.98	145
1150.44	115
1150.89	109
1151.35	133
1151.8	91
1152.25	143
1152.71	133
1153.16	99
1153.62	151
1154.07	107
1154.52	117
1154.98	123
1155.43	141
1155.89	107
1156.34	117
1156.79	123
1157.25	161
1157.7	151
1158.16	65
1158.61	167
1159.06	91
1159.52	171
1159.97	101
1160.42	139
1160.88	131
1161.33	107
1161.78	127
1162.24	117
1162.69	137
1163.14	85
1163.6	197
1164.05	83
1164.5	161
1164.96	111
1165.41	125
1165.86	145
1166.32	95
1166.77	145
1167.22	123
1167.68	151
1168.13	99
1168.58	147
1169.04	95
1169.49	153
1169.94	103
1170.39	125
1170.85	161
1171.3	101
1171.75	125
1172.2	111
1172.66	127
1173.11	111
1173.56	113
1174.01	125
1174.47	159
1174.92	103
1175.37	125
1175.82	139
1176.28	107
1176.73	135
1177.18	139
1177.63	95
1178.09	149
1178.54	113
1178.99	137
1179.44	121
1179.89	97
1180.35	149
1180.8	123
1181.25	121
1181.7	107
1182.15	137
1182.61	91
1183.06	159
1183.51	83
1183.96	143
1184.41	135
1184.87	99
1185.32	147
1185.77	81
1186.22	151
1186.67	111
1187.12	135
1187.58	69
1188.03	161
1188.48	89
1188.93	135
1189.38	141
1189.83	79
1190.28	183
1190.73	79
1191.19	159
1191.64	117
1192.09	129
1192.54	123
1192.99	121
1193.44	111
1193.89	153
1194.34	125
1194.8	81
1195.25	181
1195.7	95
1196.15	153
1196.6	95
1197.05	141
1197.5	145
1197.95	119
1198.4	131
1198.85	137
1199.3	121
1199.75	107
1200.2	137
1200.66	123
1201.11	167
1201.56	117
1202.01	137
1202.46	129
1202.91	95
1203.36	131
1203.81	125
1204.26	113
1204.71	133
1205.16	117
1205.61	125
1206.06	157
1206.51	125
1206.96	109
1207.41	141
1207.86	93
1208.31	115
1208.76	133
1209.21	101
1209.66	173
1210.11	83
1210.56	147
1211.01	127
1211.46	131
1211.91	117
1212.36	99
1212.81	123
1213.26	87
1213.71	165
1214.16	89
1214.61	177
1215.05	75
1215.51	153
1215.95	137
1216.4	133
1216.85	175
1217.3	91
1217.75	143
1218.2	89
1218.65	147
1219.1	107
1219.55	137
1220	87
1220.45	153
1220.9	127
1221.34	91
1221.79	147
1222.24	87
1222.69	147
1223.14	95
1223.59	123
1224.04	121
1224.49	139
1224.94	87
1225.38	161
1225.83	125
1226.28	125
1226.73	119
1227.18	105
1227.63	133
1228.07	127
1228.52	123
1228.97	141
1229.42	115
1229.87	103
1230.32	135
1230.76	127
1231.21	155
1231.66	111
1232.11	113
1232.56	121
1233.01	143
1233.45	113
1233.9	147
1234.35	89
1234.8	125
1235.25	141
1235.69	111
1236.14	187
1236.59	77
1237.04	135
1237.49	123
1237.93	159
1238.38	105
1238.83	135
1239.28	99
1239.72	135
1240.17	139
1240.62	113
1241.07	165
1241.51	47
1241.96	149
1242.41	107
1242.86	155
1243.3	105
1243.75	123
1244.2	133
1244.65	139
1245.09	143
1245.54	107
1245.99	151
1246.44	85
1246.88	147
1247.33	133
1247.78	155
1248.22	147
1248.67	101
1249.12	123
1249.56	159
1250.01	113
1250.46	135
1250.9	115
1251.35	105
1251.8	147
1252.24	115
1252.69	123
1253.14	115
1253.58	107
1254.03	125
1254.48	135
1254.92	93
1255.37	167
1255.82	89
1256.26	149
1256.71	155
1257.15	135
1257.6	119
1258.05	113
1258.49	109
1258.94	133
1259.39	129
1259.83	89
1260.28	173
1260.72	81
1261.17	173
1261.62	139
1262.06	145
1262.51	145
1262.95	83
1263.4	143
1263.85	129
1264.29	137
1264.74	89
1265.18	145
1265.63	89
1266.07	161
1266.52	111
1266.97	123
1267.41	149
1267.86	103
1268.3	149
1268.75	115
1269.19	147
1269.64	83
1270.08	139
1270.53	115
1270.97	141
1271.42	107
1271.86	111
1272.31	153
1272.76	67
1273.2	149
1273.64	115
1274.09	139
1274.53	113
1274.98	119
1275.42	135
1275.87	161
1276.31	135
1276.76	115
1277.2	145
1277.65	115
1278.09	129
1278.54	133
1278.98	105
1279.43	143
1279.87	101
1280.32	127
1280.76	145
1281.21	93
1281.65	137
1282.09	111
1282.54	131
1282.98	119
1283.43	145
1283.87	107
1284.32	137
1284.76	97
1285.21	131
1285.65	159
1286.09	89
1286.54	169
1286.98	105
1287.42	153
1287.87	119
1288.31	155
1288.76	111
1289.2	161
1289.64	103
1290.09	129
1290.53	127
1290.98	83
1291.42	169
1291.86	75
1292.31	171
1292.75	101
1293.19	141
1293.64	121
1294.08	135
1294.53	109
1294.97	137
1295.41	153
1295.85	99
1296.3	163
1296.74	77
1297.19	153
1297.63	99
1298.07	129
1298.51	155
1298.96	99
1299.4	137
1299.84	147
1300.29	133
1300.73	105
1301.17	141
1301.62	117
1302.06	145
1302.5	113
1302.94	133
1303.39	149
1303.83	105
1304.27	123
1304.72	133
1305.16	123
1305.6	125
1306.04	111
1306.49	117
1306.93	133
1307.37	113
1307.81	127
1308.26	137
1308.7	141
1309.14	107
1309.58	149
1310.03	103
1310.47	177
1310.91	97
1311.35	143
1311.8	145
1312.24	119
1312.68	141
1313.12	105
1313.56	135
1314	131
1314.45	155
1314.89	115
1315.33	155
1315.77	79
1316.22	161
1316.66	127
1317.1	115
1317.54	185
1317.98	105
1318.43	143
1318.87	111
1319.31	155
1319.75	107
1320.19	147
1320.63	107
1321.07	163
1321.51	119
1321.96	113
1322.4	163
1322.84	101
1323.28	179
1323.72	115
1324.16	151
1324.6	133
1325.05	149
1325.49	101
1325.93	149
1326.37	143
1326.81	135
1327.25	157
1327.69	97
1328.13	163
1328.57	115
1329.02	121
1329.45	139
1329.9	99
1330.34	115
1330.78	163
1331.22	117
1331.66	155
1332.1	119
1332.54	133
1332.98	127
1333.42	141
1333.86	109
1334.3	163
1334.74	117
1335.18	131
1335.62	143
1336.07	137
1336.5	175
1336.95	95
1337.39	157
1337.83	127
1338.27	171
1338.71	143
1339.15	151
1339.59	111
1340.03	123
1340.47	149
1340.91	119
1341.35	179
1341.79	77
1342.23	173
1342.67	129
1343.11	167
1343.55	129
1343.99	153
1344.43	129
1344.86	137
1345.31	129
1345.74	125
1346.18	173
1346.62	63
1347.06	175
1347.5	107
1347.94	159
1348.38	137
1348.82	131
1349.26	145
1349.7	149
1350.14	157
1350.58	137
1351.02	159
1351.46	107
1351.9	159
1352.33	123
1352.77	143
1353.21	143
1353.65	117
1354.09	151
1354.53	125
1354.97	121
1355.41	157
1355.85	97
1356.29	119
1356.72	137
1357.16	135
1357.6	121
1358.04	115
1358.48	123
1358.92	141
1359.36	169
1359.79	109
1360.23	175
1360.67	95
1361.11	163
1361.55	133
1361.99	141
1362.43	147
1362.87	101
1363.3	127
1363.74	115
1364.18	179
1364.62	93
1365.06	177
1365.49	97
1365.93	157
1366.37	129
1366.81	135
1367.25	155
1367.68	73
1368.12	139
1368.56	125
1369	153
1369.44	89
1369.87	149
1370.31	91
1370.75	145
1371.19	105
1371.62	127
1372.06	149
1372.5	73
1372.94	149
1373.37	125
1373.81	135
1374.25	99
1374.69	123
1375.12	95
1375.56	143
1376	117
1376.44	111
1376.87	137
1377.31	81
1377.75	183
1378.19	135
1378.62	143
1379.06	101
1379.5	119
1379.93	131
1380.37	133
1380.81	93
1381.25	131
1381.68	135
1382.12	109
1382.56	141
1382.99	129
1383.43	93
1383.87	137
1384.3	109
1384.74	129
1385.18	143
1385.61	79
1386.05	163
1386.49	87
1386.92	149
1387.36	123
1387.8	137
1388.23	105
1388.67	135
1389.1	99
1389.54	139
1389.98	135
1390.41	79
1390.85	177
1391.29	79
1391.72	177
1392.16	105
1392.59	133
1393.03	119
1393.47	113
1393.9	125
1394.34	133
1394.77	151
1395.21	93
1395.65	171
1396.08	99
1396.52	159
1396.95	99
1397.39	115
1397.82	123
1398.26	99
1398.7	137
1399.13	139
1399.57	135
1400	101
1400.44	143
1400.87	107
1401.31	157
1401.74	91
1402.18	133
1402.62	155
1403.05	101
1403.49	143
1403.92	127
1404.36	121
1404.79	133
1405.23	133
1405.66	109
1406.1	149
1406.53	99
1406.97	121
1407.4	125
1407.84	93
1408.27	121
1408.71	135
1409.14	97
1409.58	159
1410.01	87
1410.45	143
1410.88	113
1411.31	101
1411.75	141
1412.18	121
1412.62	137
1413.05	103
1413.49	159
1413.92	89
1414.36	187
1414.79	91
1415.23	157
1415.66	133
1416.1	109
1416.53	171
1416.96	81
1417.4	143
1417.83	81
1418.27	167
1418.7	115
1419.13	145
1419.57	69
1420	139
1420.44	135
1420.87	93
1421.3	165
1421.74	89
1422.17	159
1422.61	77
1423.04	129
1423.47	107
1423.91	117
1424.34	85
1424.77	167
1425.21	129
1425.64	131
1426.07	127
1426.51	111
1426.94	159
1427.38	113
1427.81	131
1428.24	155
1428.68	123
1429.11	105
1429.54	137
1429.98	117
1430.41	141
1430.84	93
1431.28	123
1431.71	137
1432.14	109
1432.57	113
1433.01	157
1433.44	85
1433.87	119
1434.31	141
1434.74	111
1435.17	161
1435.61	69
1436.04	149
1436.47	97
1436.9	139
1437.34	117
1437.77	135
1438.2	87
1438.63	115
1439.07	139
1439.5	103
1439.93	177
1440.36	59
1440.8	173
1441.23	109
1441.66	145
1442.09	133
1442.53	105
1442.96	119
1443.39	131
1443.82	141
1444.26	93
1444.69	153
1445.12	75
1445.55	173
1445.98	117
1446.42	113
1446.85	139
1447.28	91
1447.71	131
1448.14	113
1448.57	119
1449.01	139
1449.44	123
1449.87	81
1450.3	147
1450.73	111
1451.17	127
1451.6	129
1452.03	91
1452.46	119
1452.89	117
1453.32	121
1453.76	145
1454.19	111
1454.62	91
1455.05	131
1455.48	117
1455.91	121
1456.34	113
1456.77	113
1457.21	137
1457.64	137
1458.07	105
1458.5	138.853
1458.93	75.2054
1459.36	117.469
1459.79	124.338
1460.22	113.042
1460.65	132.915
1461.08	101.228
1461.52	124.194
1461.95	103.513
1462.38	124.644
1462.81	92.1117
1463.24	168.391
1463.67	100.499
1464.1	126.589
1464.53	112.32
1464.96	98.895
1465.39	168.359
1465.82	66.2332
1466.25	156.372
1466.68	110.775
1467.11	134.462
1467.54	103.462
1467.98	131.813
1468.41	98.9494
1468.84	125.298
1469.27	131.819
1469.7	104.44
1470.13	148.464
1470.56	85.6322
1470.99	149.768
1471.42	115.171
1471.85	127.773
1472.28	121.445
1472.71	110.621
1473.14	124.211
1473.57	144.71
1474	111.738
1474.43	106.491
1474.86	137.836
1475.29	108.108
1475.72	147.856
1476.15	108.373
1476.58	110.123
1477.01	123.308
1477.44	121.479
1477.87	109.007
1478.3	153.316
1478.72	98.5595
1479.15	123.741
1479.58	117.657
1480.01	111.863
1480.44	157.978
1480.87	92.1195
1481.3	132.833
1481.73	129.818
1482.16	131.271
1482.59	133.068
1483.02	170.312
1483.45	101.105
1483.88	145.658
1484.31	120.458
1484.74	106.575
1485.17	158.174
1485.59	94.6622
1486.02	132.493
1486.45	114.253
1486.88	125.216
1487.31	122.89
1487.74	136.077
1488.17	92.2896
1488.6	139.414
1489.02	117.384
1489.45	114.747
1489.88	136.742
1490.31	101.292
1490.74	132.77
1491.17	114.184
1491.6	131.682
1492.03	119.99
1492.45	113.639
1492.88	102.445
1493.31	142.723
1493.74	117.284
1494.17	115.945
1494.6	115.475
1495.02	99.7915
1495.45	128.298
1495.88	119.374
1496.31	131.176
1496.74	129.174
1497.17	118.044
1497.59	120.941
1498.02	142.665
1498.45	127.084
1498.88	128.231
1499.31	119.817
1499.73	101.995
1500.16	123.442
1500.59	131.485
1501.02	118.298
1501.45	117.563
1501.87	107.554
1502.13	77
1502.56	125
1502.99	135
1503.43	89
1503.86	171
1504.29	75
1504.72	137
1505.16	113
1505.59	147
1506.02	113
1506.46	101
1506.89	111
1507.32	123
1507.75	147
1508.19	83
1508.62	173
1509.05	67
1509.49	161
1509.92	105
1510.35	121
1510.78	147
1511.21	85
1511.65	133
1512.08	111
1512.51	145
1512.94	85
1513.38	159
1513.81	93
1514.24	147
1514.67	107
1515.11	121
1515.54	149
1515.97	83
1516.4	141
1516.83	121
1517.27	131
1517.7	87
1518.13	131
1518.56	101
1518.99	137
1519.42	127
1519.86	119
1520.29	139
1520.72	101
1521.15	131
1521.58	113
1522.01	143
1522.45	131
1522.88	95
1523.31	125
1523.74	157
1524.17	103
1524.6	129
1525.04	129
1525.47	119
1525.9	133
1526.33	145
1526.76	99
1527.19	139
1527.62	87
1528.05	129
1528.49	131
1528.92	95
1529.35	145
1529.78	95
1530.21	135
1530.64	103
1531.07	145
1531.5	99
1531.93	155
1532.37	83
1532.8	159
1533.23	133
1533.66	105
1534.09	181
1534.52	81
1534.95	155
1535.38	87
1535.81	147
1536.24	137
1536.67	139
1537.1	107
1537.53	159
1537.96	133
1538.39	87
1538.82	171
1539.26	79
1539.68	167
1540.12	97
1540.55	141
1540.98	137
1541.41	123
1541.84	121
1542.27	145
1542.7	121
1543.13	99
1543.56	145
1543.99	113
1544.42	131
1544.85	107
1545.28	125
1545.71	139
1546.14	113
1546.57	105
1547	155
1547.43	111
1547.86	139
1548.29	117
1548.72	133
1549.14	147
1549.57	121
1550.01	129
1550.43	153
1550.86	127
1551.29	125
1551.72	147
1552.15	127
1552.58	173
1553.01	75
1553.44	159
1553.87	121
1554.3	149
1554.73	137
1555.16	159
1555.59	117
1556.01	123
1556.44	155
1556.87	117
1557.3	185
1557.73	57
1558.16	181
1558.59	111
1559.02	143
1559.45	127
1559.88	133
1560.3	123
1560.73	129
1561.16	169
1561.59	105
1562.02	177
1562.45	93
1562.88	181
1563.31	131
1563.73	133
1564.16	157
1564.59	119
1565.02	135
1565.45	141
1565.88	161
1566.3	149
1566.73	159
1567.16	93
1567.59	157
1568.02	163
1568.45	139
1568.88	177
1569.3	121
1569.73	149
1570.16	173
1570.59	151
1571.01	187
1571.44	131
1571.87	121
1572.3	177
1572.73	163
1573.15	167
1573.58	153
1574.01	139
1574.44	159
1574.87	173
1575.29	143
1575.72	221
1576.15	147
1576.58	177
1577	201
1577.43	181
1577.86	185
1578.29	131
1578.71	173
1579.14	203
1579.57	213
1580	163
1580.42	231
1580.85	155
1581.28	209
1581.71	207
1582.13	229
1582.56	247
1582.99	203
1583.41	287
1583.84	207
1584.27	277
1584.7	247
1585.12	303
1585.55	267
1585.98	317
1586.4	315
1586.83	297
1587.26	377
1587.68	235
1588.11	361
1588.54	355
1588.96	353
1589.39	315
1589.82	349
1590.24	325
1590.67	315
1591.1	335
1591.52	291
1591.95	323
1592.38	229
1592.8	281
1593.23	285
1593.65	251
1594.08	263
1594.51	237
1594.93	233
1595.36	235
1595.79	211
1596.21	245
1596.64	201
1597.06	185
1597.49	221
1597.92	197
1598.34	171
1598.77	173
1599.19	173
1599.62	173
1600.05	207
1600.47	163
1600.9	205
1601.32	161
1601.75	163
1602.18	171
1602.6	177
1603.03	163
1603.45	161
1603.88	143
1604.3	169
1604.73	159
1605.15	95
1605.58	175
1606	85
1606.43	177
1606.86	131
1607.28	147
1607.71	137
1608.13	111
1608.56	143
1608.98	139
1609.41	155
1609.83	81
1610.26	171
1610.68	91
1611.11	159
1611.53	117
1611.96	137
1612.38	151
1612.81	99
1613.23	167
1613.66	129
1614.08	165
1614.51	95
1614.93	135
1615.36	91
1615.78	155
1616.21	141
1616.63	139
1617.06	169
1617.48	83
1617.9	141
1618.33	133
1618.75	141
1619.18	135
1619.6	109
1620.03	123
1620.45	149
1620.88	115
1621.3	117
1621.72	133
1622.15	107
1622.57	147
1623	145
1623.42	113
1623.85	149
1624.27	111
1624.69	161
1625.12	145
1625.54	109
1625.97	169
1626.39	131
1626.81	137
1627.24	131
1627.66	153
1628.08	105
1628.51	151
1628.93	97
1629.36	151
1629.78	137
1630.2	101
1630.63	153
1631.05	87
1631.47	151
1631.9	101
1632.32	141
1632.74	87
1633.17	169
1633.59	83
1634.01	151
1634.44	125
1634.86	103
1635.28	163
1635.71	79
1636.13	159
1636.55	99
1636.98	145
1637.4	143
1637.82	135
1638.25	101
1638.67	133
1639.09	139
1639.51	103
1639.94	171
1640.36	75
1640.78	155
1641.21	77
1641.63	117
1642.05	141
1642.47	109
1642.9	95
1643.32	133
1643.74	103
1644.17	141
1644.59	125
1645.01	113
1645.43	131
1645.86	93
1646.28	93
1646.7	145
1647.12	99
1647.55	113
1647.97	155
1648.39	131
1648.81	157
1649.23	79
1649.66	123
1650.08	123
1650.5	147
1650.92	109
1651.35	131
1651.77	111
1652.19	127
1652.61	147
1653.03	105
1653.45	157
1653.88	71
1654.3	159
1654.72	91
1655.14	125
1655.56	113
1655.99	125
1656.41	115
1656.83	121
1657.25	151
1657.67	89
1658.09	157
1658.52	67
1658.94	147
1659.36	113
1659.78	139
1660.2	143
1660.62	101
1661.04	147
1661.47	107
1661.89	149
1662.31	103
1662.73	159
1663.15	59
1663.57	161
1663.99	103
1664.41	127
1664.83	137
1665.26	105
1665.68	143
1666.1	113
1666.52	131
1666.94	119
1667.36	119
1667.78	71
1668.2	139
1668.62	129
1669.04	113
1669.46	133
1669.89	109
1670.31	131
1670.73	135
1671.15	103
1671.57	151
1671.99	87
1672.41	119
1672.83	131
1673.25	127
1673.67	141
1674.09	87
1674.51	129
1674.93	117
1675.35	137
1675.77	95
1676.19	155
1676.61	87
1677.03	137
1677.45	125
1677.87	105
1678.29	155
1678.71	67
1679.13	129
1679.55	123
1679.97	131
1680.39	87
1680.81	143
1681.23	77
1681.65	119
1682.07	111
1682.49	105
1682.91	147
1683.33	53
1683.75	137
1684.17	99
1684.59	131
1685.01	99
1685.43	113
1685.85	117
1686.27	147
1686.69	121
1687.11	99
1687.53	167
1687.95	55
1688.37	159
1688.78	121
1689.2	127
1689.62	115
1690.04	105
1690.46	119
1690.88	133
1691.3	127
1691.72	131
1692.14	129
1692.56	71
1692.98	137
1693.39	127
1693.81	109
1694.23	117
1694.65	95
1695.07	133
1695.49	127
1695.91	99
1696.33	129
1696.75	89
1697.16	109
1697.58	115
1698	123
1698.42	107
1698.84	115
1699.26	109
1699.68	125
1700.09	131
1700.51	81
1700.93	171
1701.35	65
1701.77	145
1702.19	109
1702.6	125
1703.02	123
1703.44	91
1703.86	123
1704.28	111
1704.69	141
1705.11	85
1705.53	163
1705.95	65
1706.37	153
1706.78	131
1707.2	109
1707.62	131
1708.04	81
1708.46	141
1708.87	119
1709.29	143
1709.71	79
1710.13	155
1710.54	93
1710.96	153
1711.38	111
1711.8	123
1712.22	139
1712.63	77
1713.05	145
1713.47	121
1713.89	139
1714.3	107
1714.72	139
1715.14	107
1715.56	139
1715.97	107
1716.39	117
1716.81	137
1717.22	97
1717.64	143
1718.06	127
1718.48	115
1718.89	133
1719.31	87
1719.73	123
1720.14	123
1720.56	99
1720.98	129
1721.39	123
1721.81	121
1722.23	111
1722.64	149
1723.06	89
1723.48	153
1723.89	73
1724.31	129
1724.73	137
1725.14	105
1725.56	145
1725.98	75
1726.39	149
1726.81	93
1727.23	135
1727.64	93
1728.06	155
1728.48	103
1728.89	145
1729.31	131
1729.72	85
1730.14	157
1730.56	79
1730.97	143
1731.39	85
1731.8	133
1732.22	109
1732.64	133
1733.05	83
1733.47	137
1733.89	123
1734.3	95
1734.72	153
1735.13	65
1735.55	155
1735.96	83
1736.38	119
1736.8	121
1737.21	107
1737.63	97
1738.04	149
1738.46	121
1738.87	105
1739.29	153
1739.71	93
1740.12	141
1740.54	97
1740.95	123
1741.37	137
1741.78	113
1742.2	119
1742.61	119
1743.03	119
1743.44	115
1743.86	107
1744.27	121
1744.69	127
1745.1	117
1745.52	105
1745.93	129
1746.35	93
1746.77	117
1747.18	131
1747.59	91
1748.01	153
1748.42	87
1748.84	143
1749.25	105
1749.67	109
1750.08	117
1750.5	127
1750.91	103
1751.33	81
1751.74	135
1752.16	87
1752.57	187
1752.99	57
1753.4	147
1753.81	125
1754.23	119
1754.64	119
1755.06	99
1755.47	131
1755.89	103
1756.3	145
1756.72	93
1757.13	147
1757.54	59
1757.96	147
1758.37	115
1758.78	113
1759.2	145
1759.61	91
1760.03	139
1760.44	109
1760.86	135
1761.27	105
1761.68	147
1762.1	75
1762.51	153
1762.92	111
1763.34	109
1763.75	145
1764.17	99
1764.58	133
1764.99	93
1765.41	147
1765.82	129
1766.23	107
1766.65	85
1767.06	143
1767.47	155
1767.89	127
1768.3	123
1768.71	83
1769.13	141
1769.54	123
1769.95	83
1770.37	145
1770.78	89
1771.19	123
1771.61	129
1772.02	101
1772.43	121
1772.85	87
1773.26	109
1773.67	117
1774.09	125
1774.5	103
1774.91	165
1775.32	79
1775.74	105
1776.15	133
1776.56	105
1776.97	167
1777.39	69
1777.8	139
1778.21	113
1778.62	131
1779.04	103
1779.45	139
1779.86	95
1780.28	113
1780.69	133
1781.1	105
1781.51	173
1781.92	45
1782.34	149
1782.75	103
1783.16	123
1783.57	113
1783.99	113
1784.4	103
1784.81	113
1785.22	133
1785.63	105
1786.05	133
1786.46	65
1786.87	147
1787.28	111
1787.69	123
1788.11	127
1788.52	79
1788.93	123
1789.34	131
1789.75	121
1790.17	105
1790.58	133
1790.99	85
1791.4	147
1791.81	97
1792.22	123
1792.63	121
1793.05	105
1793.46	119
1793.87	103
1794.28	135
1794.69	141
1795.1	79
1795.52	87
1795.93	115
1796.34	133
1796.75	121
1797.16	105
1797.57	85
1797.98	113
1798.39	127
1798.81	103
1799.22	163
1799.63	81
1800.04	137
1800.45	129
1800.86	137
1801.27	147
1801.68	83
1802.09	129
1802.5	107
1802.91	141
1803.32	73
1803.73	167
1804.15	73
1804.56	141
1804.97	127
1805.38	121
1805.79	159
1806.2	77
1806.61	125
1807.02	123
1807.43	119
1807.84	71
1808.25	143
1808.66	83
1809.07	149
1809.48	107
1809.89	99
1810.3	129
1810.71	63
1811.12	129
1811.53	103
1811.94	139
1812.35	81
1812.76	119
1813.17	111
1813.58	147
1813.99	115
1814.4	117
1814.81	137
1815.22	85
1815.63	139
1816.04	127
1816.45	113
1816.86	117
1817.27	97
1817.68	115
1818.09	135
1818.5	81
1818.91	139
1819.32	103
1819.73	109
1820.14	129
1820.55	123
1820.96	97
1821.37	137
1821.78	91
1822.19	119
1822.6	117
1823.01	77
1823.42	163
1823.82	109
1824.23	131
1824.64	113
1825.05	119
1825.46	87
1825.87	117
1826.28	77
1826.69	119
1827.1	121
1827.51	79
1827.91	173
1828.32	65
1828.73	145
1829.14	107
1829.55	139
1829.96	119
1830.37	105
1830.78	109
1831.18	109
1831.59	131
1832	77
1832.41	161
1832.82	71
1833.23	149
1833.64	95
1834.05	119
1834.45	131
1834.86	113
1835.27	121
1835.68	111
1836.09	109
1836.49	93
1836.9	133
1837.31	91
1837.72	151
1838.13	113
1838.53	129
1838.94	137
1839.35	109
1839.76	135
1840.17	123
1840.58	123
1840.98	111
1841.39	113
1841.8	97
1842.21	143
1842.61	93
1843.02	117
1843.43	135
1843.84	87
1844.25	121
1844.65	113
1845.06	85
1845.47	135
1845.88	79
1846.28	114.874
1846.69	104.872
1847.1	85.6261
1847.51	109.521
1847.91	115.082
1848.32	114.642
1848.73	100.799
1849.14	157.562
1849.54	78.802
1849.95	148.715
1850.36	89.6877
1850.77	147.239
1851.17	119.818
1851.58	96.3661
1851.99	143.233
1852.39	86.2717
1852.8	120.696
1853.21	98.9021
1853.62	132.448
1854.02	95.1155
1854.43	134.392
1854.84	87.2126
1855.24	135.915
1855.65	105.082
1856.06	101.226
1856.46	131.899
1856.87	74.8815
1857.28	123.495
1857.68	101.28
1858.09	109.432
1858.5	108.852
1858.9	125.318
1859.31	85.7576
1859.72	136.994
1860.12	101.697
1860.53	120.351
1860.94	127.906
1861.34	92.2249
1861.75	126.748
1862.15	99.7212
1862.56	115
1862.97	134.063
1863.37	114.142
1863.78	100.867
1864.19	136.273
1864.59	100.791
1865	125.379
1865.4	125.41
1865.81	105.95
1866.22	129.965
1866.62	82.909
1867.03	116.757
1867.43	141.021
1867.84	97.2168
1868.25	116.675
1868.65	120.058
1869.06	114.043
1869.46	133.398
1869.87	102.626
1870.28	101.452
1870.68	119.325
1871.09	109.907
1871.49	112.27
1871.9	132.879
1872.3	82.9599
1872.71	112.565
1873.12	117.852
1873.52	110.917
1873.93	130.67
1874.33	105.508
1874.74	126.846
1875.14	110.775
1875.55	127.725
1875.95	114.798
1876.36	121.605
1876.76	104.025
1877.17	120.5
1877.57	126.858
1877.98	98.6269
1878.38	135.653
1878.79	112.76
1879.19	132.662
1879.6	101.104
1880	108.628
1880.41	117.008
1880.81	118.108
1881.22	104.749
1881.63	107.745
1882.03	122.389
1882.43	99.1395
1882.84	139.295
1883.24	108.641
1883.65	133.904
1884.05	119.467
1884.46	120.178
1884.86	116.776
1885.27	124.733
1885.67	114.524
1886.08	96.3816
1886.48	143.453
1886.89	90.6565
1887.29	131.864
1887.69	86.2644
1888.1	120.41
1888.5	121.584
1888.85	103
1889.26	135
1889.67	135
1890.08	105
1890.49	115
1890.9	117
1891.3	81
1891.71	121
1892.12	107
1892.53	115
1892.94	139
1893.35	73
1893.76	121
1894.17	139
1894.58	125
1894.99	127
1895.4	87
1895.81	135
1896.22	123
1896.62	113
1897.03	125
1897.44	99
1897.85	97
1898.26	101
1898.67	141
1899.08	105
1899.49	155
1899.9	79
1900.3	153
1900.71	119
1901.12	87
1901.53	129
1901.94	103
1902.35	99
1902.75	105
1903.16	147
1903.57	109
1903.98	173
1904.39	69
1904.8	125
1905.21	101
1905.61	105
1906.02	147
1906.43	83
1906.84	125
1907.25	85
1907.66	147
1908.06	83
1908.47	149
1908.88	69
1909.29	145
1909.7	109
1910.1	103
1910.51	137
1910.92	89
1911.33	149
1911.73	73
1912.14	147
1912.55	101
1912.96	153
1913.37	85
1913.77	139
1914.18	129
1914.59	103
1915	161
1915.4	79
1915.81	145
1916.22	93
1916.63	139
1917.03	149
1917.44	125
1917.85	93
1918.26	141
1918.66	111
1919.07	133
1919.48	121
1919.89	101
1920.29	121
1920.7	123
1921.11	103
1921.51	147
1921.92	83
1922.33	89
1922.73	123
1923.14	101
1923.55	143
1923.96	89
1924.36	121
1924.77	91
1925.18	115
1925.58	89
1925.99	139
1926.4	101
1926.8	133
1927.21	129
1927.62	113
1928.02	155
1928.43	65
1928.84	135
1929.24	127
1929.65	125
1930.06	95
1930.46	135
1930.87	85
1931.28	117
1931.68	117
1932.09	101
1932.49	159
1932.9	53
1933.31	155
1933.71	107
1934.12	133
1934.53	109
1934.93	115
1935.34	93
1935.74	113
1936.15	119
1936.56	97
1936.96	159
1937.37	59
1937.78	153
1938.18	107
1938.59	121
1938.99	111
1939.4	79
1939.8	129
1940.21	125
1940.62	115
1941.02	99
1941.43	121
1941.83	93
1942.24	147
1942.64	125
1943.05	113
1943.45	127
1943.86	71
1944.27	113
1944.67	137
1945.08	105
1945.48	131
1945.89	89
1946.29	121
1946.7	123
1947.1	125
1947.51	109
1947.91	113
1948.32	105
1948.72	121
1949.13	129
1949.53	75
1949.94	175
1950.34	91
1950.75	153
1951.15	119
1951.56	147
1951.96	113
1952.37	113
1952.77	109
1953.18	117
1953.58	141
1953.99	73
1954.39	163
1954.8	79
1955.2	159
1955.61	111
1956.01	125
1956.42	115
1956.82	83
1957.23	127
1957.63	101
1958.03	137
1958.44	57
1958.84	161
1959.25	55
1959.65	149
1960.06	115
1960.46	119
1960.86	143
1961.27	89
1961.67	135
1962.08	119
1962.48	137
1962.89	111
1963.29	151
1963.69	125
1964.1	147
1964.5	107
1964.91	131
1965.31	143
1965.71	97
1966.12	121
1966.52	145
1966.93	105
1967.33	139
1967.73	93
1968.14	113
1968.54	127
1968.94	89
1969.35	123
1969.75	133
1970.15	121
1970.56	117
1970.96	119
1971.37	81
1971.77	145
1972.17	81
1972.58	125
1972.98	127
1973.38	93
1973.79	129
1974.19	107
1974.59	137
1974.99	101
1975.4	139
1975.8	113
1976.21	155
1976.61	73
1977.01	145
1977.41	115
1977.82	95
1978.22	137
1978.62	77
1979.03	131
1979.43	91
1979.83	149
1980.24	89
1980.64	137
1981.04	85
1981.44	163
1981.85	129
1982.25	95
1982.65	159
1983.05	83
1983.46	149
1983.86	103
1984.26	155
1984.66	105
1985.07	113
1985.47	69
1985.87	143
1986.27	131
1986.68	109
1987.08	159
1987.48	101
1987.88	145
1988.29	111
1988.69	123
1989.09	147
1989.49	93
1989.89	105
1990.3	145
1990.7	119
1991.1	125
1991.5	141
1991.9	101
1992.31	133
1992.71	93
1993.11	115
1993.51	115
1993.91	97
1994.32	107
1994.72	123
1995.12	115
1995.52	145
1995.92	109
1996.32	109
1996.73	133
1997.13	131
1997.53	127
1997.93	155
1998.33	81
1998.73	117
1999.14	131
1999.54	115
1999.94	159
2000.34	75
2000.74	141
2001.14	131
2001.54	113
2001.94	109
2002.35	125
2002.75	101
2003.15	117
2003.55	135
2003.95	73
2004.35	167
2004.75	45
2005.15	161
2005.55	91
2005.96	145
2006.36	115
2006.76	103
2007.16	103
2007.56	91
2007.96	145
2008.36	97
2008.76	171
2009.16	43
2009.56	165
2009.96	131
2010.36	135
2010.76	137
2011.16	81
2011.57	129
2011.97	109
2012.37	147
2012.77	115
2013.17	129
2013.57	65
2013.97	149
2014.37	123
2014.77	125
2015.17	135
2015.57	105
2015.97	133
2016.37	119
2016.77	103
2017.17	151
2017.57	95
2017.97	93
2018.37	139
2018.77	119
2019.17	143
2019.57	113
2019.97	103
2020.37	127
2020.77	145
2021.17	101
2021.57	153
2021.97	85
2022.37	135
2022.77	133
2023.17	121
2023.57	127
2023.97	97
2024.37	113
2024.77	119
2025.17	141
2025.57	91
2025.97	163
2026.37	53
2026.77	157
2027.16	107
2027.56	123
2027.96	129
2028.36	79
2028.76	137
2029.16	95
2029.56	149
2029.96	77
2030.36	163
2030.76	69
2031.16	161
2031.56	109
2031.96	117
2032.35	153
2032.75	83
2033.15	117
2033.55	133
2033.95	141
2034.35	79
2034.75	139
2035.15	103
2035.54	143
2035.94	115
2036.34	131
2036.74	145
2037.14	89
2037.54	137
2037.94	135
2038.34	111
2038.74	131
2039.13	105
2039.53	107
2039.93	141
2040.33	83
2040.73	129
2041.12	95
2041.52	121
2041.92	125
2042.32	131
2042.72	117
2043.12	137
2043.51	103
2043.91	143
2044.31	133
2044.71	93
2045.11	133
2045.51	115
2045.9	125
2046.3	115
2046.7	131
2047.1	97
2047.49	147
2047.89	95
2048.29	147
2048.69	113
2049.09	97
2049.48	139
2049.88	85
2050.28	139
2050.68	97
2051.07	145
2051.47	99
2051.87	153
2052.27	71
2052.67	137
2053.06	123
2053.46	71
2053.86	159
2054.26	61
2054.65	149
2055.05	87
2055.45	129
2055.85	119
2056.24	137
2056.64	109
2057.04	125
2057.43	141
2057.83	75
2058.23	149
2058.62	83
2059.02	143
2059.42	85
2059.82	125
2060.21	127
2060.61	105
2061.01	105
2061.4	147
2061.8	123
2062.2	135
2062.59	123
2062.99	95
2063.39	141
2063.79	107
2064.18	133
2064.58	133
2064.97	85
2065.37	125
2065.77	133
2066.16	111
2066.56	97
2066.96	89
2067.35	111
2067.75	117
2068.15	111
2068.54	121
2068.94	147
2069.34	87
2069.73	119
2070.13	125
2070.52	111
2070.92	143
2071.32	87
2071.71	121
2072.11	119
2072.51	111
2072.9	117
2073.3	119
2073.69	97
2074.09	107
2074.49	121
2074.88	87
2075.28	167
2075.67	83
2076.07	143
2076.47	109
2076.86	119
2077.26	137
2077.65	95
2078.05	123
2078.44	87
2078.84	139
2079.23	91
2079.63	161
2080.03	49
2080.42	141
2080.82	135
2081.21	109
2081.61	139
2082	81
2082.4	135
2082.79	123
2083.19	131
2083.58	83
2083.98	143
2084.37	69
2084.77	157
2085.16	113
2085.56	117
2085.95	161
2086.35	89
2086.74	125
2087.14	97
2087.53	131
2087.93	141
2088.32	137
2088.72	71
2089.11	145
2089.51	107
2089.9	105
2090.3	127
2090.69	91
2091.09	135
2091.48	119
2091.88	119
2092.27	127
2092.67	111
2093.06	83
2093.46	133
2093.85	125
2094.25	117
2094.64	117
2095.03	107
2095.43	135
2095.82	153
2096.22	91
2096.61	153
2097.01	85
2097.4	129
2097.79	133
2098.19	113
2098.58	133
2098.98	71
2099.37	131
2099.76	107
2100.16	135
2100.55	81
2100.95	155
2101.34	87
2101.73	149
2102.13	133
2102.52	111
2102.92	157
2103.31	51
2103.7	133
2104.1	101
2104.49	151
2104.88	87
2105.28	145
2105.67	113
2106.07	135
2106.46	135
2106.85	99
2107.25	157
2107.64	71
2108.03	137
2108.43	113
2108.82	145
2109.21	97
2109.61	123
2110	115
2110.39	151
2110.79	115
2111.18	93
2111.57	125
2111.97	69
2112.36	161
2112.75	115
2113.15	137
2113.54	93
2113.93	103
2114.32	115
2114.72	133
2115.11	103
2115.5	121
2115.9	121
2116.29	103
2116.68	117
2117.08	117
2117.47	95
2117.86	133
2118.25	91
2118.65	129
2119.04	131
2119.43	81
2119.82	155
2120.22	87
2120.61	137
2121	113
2121.39	119
2121.79	105
2122.18	139
2122.57	65
2122.96	131
2123.36	147
2123.75	75
2124.14	169
2124.53	73
2124.93	155
2125.32	121
2125.71	141
2126.1	97
2126.49	115
2126.89	115
2127.28	123
2127.67	133
2128.06	73
2128.45	157
2128.85	55
2129.24	149
2129.63	77
2130.02	131
2130.41	119
2130.81	99
2131.2	109
2131.59	129
2131.98	135
2132.37	87
2132.76	157
2133.16	69
2133.55	157
2133.94	91
2134.33	119
2134.72	145
2135.11	123
2135.5	123
2135.9	121
2136.29	119
2136.68	89
2137.07	137
2137.46	87
2137.85	137
2138.24	93
2138.63	125
2139.03	141
2139.42	99
2139.81	111
2140.2	135
2140.59	105
2140.98	125
2141.37	87
2141.76	131
2142.15	125
2142.55	93
2142.94	117
2143.33	135
2143.72	117
2144.11	109
2144.5	139
2144.89	69
2145.28	159
2145.67	73
2146.06	131
2146.45	121
2146.84	105
2147.23	157
2147.62	101
2148.02	131
2148.4	99
2148.8	143
2149.19	77
2149.58	145
2149.97	75
2150.36	127
2150.75	121
2151.14	95
2151.53	121
2151.92	91
2152.31	119
2152.7	89
2153.09	123
2153.48	85
2153.87	139
2154.26	57
2154.65	147
2155.04	105
2155.43	105
2155.82	161
2156.21	77
2156.6	135
2156.99	73
2157.38	143
2157.77	109
2158.16	123
2158.55	89
2158.94	143
2159.33	123
2159.72	93
2160.11	167
2160.5	71
2160.89	149
2161.28	85
2161.66	131
2162.05	127
2162.44	105
2162.83	101
2163.22	131
2163.61	119
2164	117
2164.39	125
2164.78	91
2165.17	127
2165.56	109
2165.95	111
2166.34	133
2166.73	93
2167.11	109
2167.5	123
2167.89	101
2168.28	131
2168.67	77
2169.06	101
2169.45	121
2169.84	131
2170.23	119
2170.62	137
2171	87
2171.39	115
2171.78	123
2172.17	101
2172.56	153
2172.95	65
2173.34	137
2173.73	121
2174.11	125
2174.5	125
2174.89	133
2175.28	83
2175.67	113
2176.06	127
2176.45	91
2176.83	151
2177.22	41
2177.61	147
2178	103
2178.39	131
2178.78	95
2179.16	103
2179.55	97
2179.94	99
2180.33	135
2180.72	87
2181.1	163
2181.49	49
2181.88	159
2182.27	103
2182.66	127
2183.04	129
2183.43	99
2183.82	119
2184.21	113
2184.6	145
2184.98	103
2185.37	125
2185.76	67
2186.15	147
2186.53	123
2186.92	107
2187.31	129
2187.7	99
2188.08	115
2188.47	113
2188.86	107
2189.25	141
2189.63	115
2190.02	85
2190.41	141
2190.8	115
2191.18	123
2191.57	111
2191.96	91
2192.34	125
2192.73	129
2193.12	107
2193.51	155
2193.89	77
2194.28	129
2194.67	121
2195.06	131
2195.44	127
2195.83	103
2196.22	99
2196.6	115
2196.99	165
2197.38	85
2197.76	155
2198.15	69
2198.54	151
2198.92	109
2199.31	131
2199.7	123
2200.08	67
2200.47	129
2200.86	119
2201.24	141
2201.63	71
2202.02	155
2202.4	75
2202.79	145
2203.18	99
2203.56	109
2203.95	141
2204.34	61
2204.72	127
2205.11	117
2205.49	133
2205.88	87
2206.27	115
2206.65	91
2207.04	123
2207.43	93
2207.81	121
2208.2	127
2208.58	83
2208.97	135
2209.36	119
2209.74	107
2210.13	95
2210.51	111
2210.9	103
2211.29	139
2211.67	85
2212.06	113
2212.44	127
2212.83	97
2213.21	125
2213.6	131
2213.98	111
2214.37	115
2214.76	77
2215.14	115
2215.53	133
2215.91	77.0282
2216.3	134.552
2216.69	95.1221
2217.07	118.752
2217.46	100.343
2217.84	131.997
2218.23	86.9728
2218.61	141.587
2219	85.7763
2219.38	134.014
2219.77	115.774
2220.15	82.8094
2220.54	150.006
2220.92	83.4659
2221.31	139.057
2221.69	77.8494
2222.08	149.909
2222.46	87.2959
2222.85	132.336
2223.23	91.8921
2223.62	129.627
2224	115.502
2224.39	81.4898
2224.77	146.786
2225.16	70.8754
2225.54	152.122
2225.93	78.635
2226.31	137.425
2226.7	115.81
2227.08	117.299
2227.47	108.036
2227.85	115.609
2228.23	105.728
2228.62	79.7779
2229	150.571
2229.39	88.0882
2229.77	152.101
2230.16	85.7791
2230.54	121.464
2230.92	119.935
2231.31	109.541
2231.69	119.942
2232.08	126.464
2232.46	115.683
2232.85	104.243
2233.23	137.077
2233.62	90.2701
2234	135.091
2234.38	83.9785
2234.77	126.188
2235.15	133.814
2235.54	108.592
2235.92	109.383
2236.3	112.482
2236.69	112.513
2237.07	112.184
2237.46	108.385
2237.84	104.817
2238.22	132.713
2238.61	94.2787
2238.99	105.579
2239.37	126.719
2239.76	102.047
2240.14	109.547
2240.53	109.102
2240.91	99.0125
2241.29	114.459
2241.68	101.305
2242.06	124.732
2242.44	123.08
2242.83	100.083
2243.21	103.216
2243.59	123.51
2243.98	116.335
2244.36	107.859
2244.74	114.979
2245.13	103.664
2245.51	136.401
2245.89	115.924
2246.28	107.654
2246.66	135.665
2247.04	84.6204
2247.43	126.214
2247.81	109.815
2248.19	110.95
2248.58	108.849
2248.96	93.627
2249.34	112.828
2249.73	122.34
2250.11	118.151
2250.49	83.1278
2250.88	167.998
2251.26	72.4916
2251.64	153.441
2252.02	123.807
2252.41	111.181
2252.79	136.154
2252.8	137
2253.18	59
2253.57	123
2253.96	103
2254.35	141
2254.74	73
2255.12	149
2255.51	85
2255.9	129
2256.29	121
2256.67	129
2257.06	133
2257.45	59
2257.84	137
2258.22	113
2258.61	133
2259	93
2259.39	125
2259.77	93
2260.16	149
2260.55	97
2260.94	107
2261.32	131
2261.71	75
2262.1	129
2262.48	119
2262.87	131
2263.26	99
2263.65	119
2264.03	91
2264.42	153
2264.81	97
2265.19	111
2265.58	123
2265.97	79
2266.35	135
2266.74	103
2267.13	115
2267.51	127
2267.9	93
2268.29	127
2268.67	127
2269.06	101
2269.45	121
2269.83	127
2270.22	99
2270.61	121
2270.99	121
2271.38	101
2271.77	125
2272.15	83
2272.54	117
2272.93	143
2273.31	91
2273.7	147
2274.08	93
2274.47	115
2274.86	101
2275.24	143
2275.63	97
2276.02	121
2276.4	89
2276.79	129
2277.17	129
2277.56	119
2277.95	136
2278.33	132.4
2278.72	167
2279.1	111
2279.49	123
2279.88	111
2280.26	127
2280.65	113
2281.03	137
2281.42	139
2281.8	85
2282.19	165
2282.58	81
2282.96	147
2283.35	99
2283.73	139
2284.12	107
2284.5	107
2284.89	95
2285.28	141
2285.66	137
2286.05	75
2286.43	137
2286.82	65
2287.2	151
2287.59	99
2287.97	123
2288.36	125
2288.74	105
2289.13	119
2289.51	127
2289.9	141
2290.28	87
2290.67	137
2291.05	91
2291.44	149
2291.82	101
2292.21	117
2292.59	131
2292.98	101
2293.36	113
2293.75	125
2294.13	123
2294.52	119
2294.9	101
2295.29	95
2295.67	125
2296.06	91
2296.44	99
2296.83	115
2297.21	93
2297.6	93
2297.98	143
2298.36	93
2298.75	141
2299.13	71
2299.52	117
2299.9	125
2300.29	101
2300.67	127
2301.06	119
2301.44	119
2301.82	93
2302.21	135
2302.59	95
2302.98	161
2303.36	85
2303.75	151
2304.13	121
2304.51	105
2304.9	141
2305.28	107
2305.67	105
2306.05	95
2306.44	143
2306.82	85
2307.2	179
2307.59	45
2307.97	145
2308.35	91
2308.74	115
2309.12	141
2309.51	85
2309.89	129
2310.27	79
2310.66	153
2311.04	81
2311.42	155
2311.81	73
2312.19	143
2312.57	115
2312.96	103
2313.34	139
2313.73	89
2314.11	139
2314.49	117
2314.88	127
2315.26	121
2315.64	125
2316.03	83
2316.41	137
2316.79	111
2317.18	101
2317.56	135
2317.94	93
2318.32	123
2318.71	115
2319.09	101
2319.47	127
2319.86	103
2320.24	93
2320.62	137
2321.01	111
2321.39	119
2321.77	119
2322.15	111
2322.54	123
2322.92	139
2323.3	107
2323.69	155
2324.07	97
2324.45	111
2324.83	143
2325.22	109
2325.6	121
2325.98	95
2326.36	121
2326.75	127
2327.13	155
2327.51	101
2327.89	157
2328.28	71
2328.66	133
2329.04	133
2329.42	113
2329.81	143
2330.19	57
2330.57	145
2330.95	113
2331.33	153
2331.72	81
2332.1	145
2332.48	59
2332.86	125
2333.24	139
2333.63	99
2334.01	149
2334.39	47
2334.77	133
2335.15	103
2335.54	125
2335.92	97
2336.3	149
2336.68	117
2337.06	147
2337.44	129
2337.83	109
2338.21	147
2338.59	57
2338.97	153
2339.35	115
2339.73	149
2340.12	105
2340.5	111
2340.88	99
2341.26	149
2341.64	113
2342.02	127
2342.41	133
2342.79	71
2343.17	143
2343.55	121
2343.93	125
2344.31	93
2344.69	111
2345.07	107
2345.45	125
2345.84	95
2346.22	135
2346.6	131
2346.98	99
2347.36	135
2347.74	121
2348.12	103
2348.5	117
2348.88	103
2349.26	131
2349.65	125
2350.03	85
2350.41	149
2350.79	69
2351.17	117
2351.55	111
2351.93	135
2352.31	91
2352.69	123
2353.07	87
2353.45	121
2353.83	141
2354.21	79
2354.59	167
2354.98	61
2355.35	151
2355.74	105
2356.12	123
2356.5	117
2356.88	117
2357.26	117
2357.64	125
2358.02	149
2358.4	71
2358.78	173
2359.16	83
2359.54	165
2359.92	99
2360.3	119
2360.68	141
2361.06	107
2361.44	123
2361.82	113
2362.2	123
2362.58	87
2362.96	135
2363.34	67
2363.72	151
2364.1	101
2364.48	117
2364.86	111
2365.24	95
2365.62	123
2366	141
2366.38	131
2366.75	79
2367.14	125
2367.51	73
2367.89	145
2368.27	97
2368.65	113
2369.03	141
2369.41	93
2369.79	121
2370.17	127
2370.55	119
2370.93	111
2371.31	117
2371.69	115
2372.07	137
2372.45	109
2372.83	105
2373.2	151
2373.58	81
2373.96	125
2374.34	135
2374.72	87
2375.1	159
2375.48	87
2375.86	131
2376.24	121
2376.61	97
2376.99	135
2377.37	107
2377.75	125
2378.13	111
2378.51	133
2378.89	107
2379.27	161
2379.65	83
2380.02	145
2380.4	101
2380.78	105
2381.16	135
2381.54	97
2381.92	121
2382.3	91
2382.67	141
2383.05	105
2383.43	153
2383.81	63
2384.19	135
2384.57	121
2384.94	109
2385.32	137
2385.7	105
2386.08	135
2386.46	97
2386.83	141
2387.21	115
2387.59	173
2387.97	59
2388.35	153
2388.73	111
2389.1	127
2389.48	149
2389.86	89
2390.24	135
2390.62	101
2390.99	127
2391.37	93
2391.75	135
2392.13	73
2392.5	153
2392.88	115
2393.26	129
2393.64	149
2394.01	89
2394.39	139
2394.77	99
2395.15	121
2395.52	141
2395.9	101
2396.28	105
2396.66	157
2397.04	119
2397.41	131
2397.79	121
2398.17	113
2398.54	121
2398.92	137
2399.3	113
2399.68	161
2400.05	95
2400.43	129
2400.81	115
2401.18	103
2401.56	115
2401.94	97
2402.32	125
2402.69	117
2403.07	139
2403.45	103
2403.82	165
2404.2	69
2404.58	113
2404.95	113
2405.33	127
2405.71	143
2406.09	83
2406.46	125
2406.84	129
2407.22	141
2407.59	93
2407.97	149
2408.34	71
2408.72	145
2409.1	127
2409.47	127
2409.85	153
2410.23	73
2410.6	161
2410.98	121
2411.36	141
2411.73	99
2412.11	147
2412.49	99
2412.86	143
2413.24	129
2413.61	107
2413.99	157
2414.37	59
2414.74	147
2415.12	117
2415.5	123
2415.87	113
2416.25	137
2416.62	137
2417	133
2417.37	117
2417.75	131
2418.13	141
2418.5	109
2418.88	147
2419.25	145
2419.63	155
2420.01	121
2420.38	109
2420.76	127
2421.13	129
2421.51	97
2421.88	121
2422.26	117
2422.64	109
2423.01	145
2423.39	141
2423.76	109
2424.14	135
2424.51	101
2424.89	119
2425.26	145
2425.64	91
2426.01	139
2426.39	113
2426.76	113
2427.14	119
2427.52	135
2427.89	101
2428.26	133
2428.64	101
2429.02	139
2429.39	129
2429.77	89
2430.14	155
2430.52	97
2430.89	157
2431.26	117
2431.64	145
2432.02	125
2432.39	145
2432.77	115
2433.14	139
2433.51	155
2433.89	75
2434.26	177
2434.64	65
2435.01	161
2435.39	99
2435.76	133
2436.14	123
2436.51	129
2436.89	119
2437.26	139
2437.63	145
2438.01	77
2438.38	179
2438.76	89
2439.13	189
2439.51	121
2439.88	147
2440.26	145
2440.63	117
2441	131
2441.38	137
2441.75	129
2442.13	103
2442.5	189
2442.87	99
2443.25	153
2443.62	89
2444	137
2444.37	153
2444.74	155
2445.12	153
2445.49	161
2445.87	133
2446.24	135
2446.61	139
2446.99	103
2447.36	163
2447.73	107
2448.11	125
2448.48	161
2448.86	97
2449.23	135
2449.6	145
2449.98	137
2450.35	145
2450.72	129
2451.1	137
2451.47	127
2451.84	141
2452.22	123
2452.59	153
2452.97	107
2453.34	143
2453.71	137
2454.08	109
2454.46	175
2454.83	99
2455.2	149
2455.58	109
2455.95	137
2456.32	123
2456.7	125
2457.07	117
2457.44	87
2457.82	163
2458.19	101
2458.56	183
2458.93	75
2459.31	163
2459.68	113
2460.05	137
2460.43	141
2460.8	103
2461.17	133
2461.54	117
2461.92	159
2462.29	101
2462.66	177
2463.03	87
2463.41	157
2463.78	115
2464.15	121
2464.52	147
2464.9	107
2465.27	133
2465.64	111
2466.01	135
2466.39	125
2466.76	163
2467.13	55
2467.5	161
2467.88	123
2468.25	125
2468.62	161
2468.99	111
2469.37	135
2469.74	113
2470.11	133
2470.48	129
2470.85	133
2471.22	87
2471.6	157
2471.97	135
2472.34	131
2472.71	149
2473.08	97
2473.46	131
2473.83	139
2474.2	119
2474.57	143
2474.94	97
2475.32	123
2475.69	141
2476.06	139
2476.43	115
2476.8	105
2477.17	115
2477.55	123
2477.92	139
2478.29	87
2478.66	161
2479.03	87
2479.4	147
2479.77	137
2480.15	133
2480.52	151
2480.89	85
2481.26	133
2481.63	119
2482	151
2482.37	79
2482.74	157
2483.12	81
2483.49	143
2483.86	129
2484.23	123
2484.6	153
2484.97	59
2485.34	131
2485.71	119
2486.08	137
2486.46	83
2486.83	155
2487.2	85
2487.57	149
2487.94	133
2488.31	115
2488.68	161
2489.05	85
2489.42	145
2489.79	111
2490.16	137
2490.53	85
2490.9	145
2491.27	87
2491.64	147
2492.01	111
2492.38	115
2492.76	141
2493.13	85
2493.5	139
2493.87	101
2494.24	129
2494.61	107
2494.98	109
2495.35	107
2495.72	139
2496.09	117
2496.46	119
2496.83	125
2497.2	97
2497.57	121
2497.94	133
2498.31	109
2498.68	135
2499.05	83
2499.42	119
2499.79	113
2500.16	79
2500.53	137
2500.9	113
2501.27	137
2501.64	117
2502.01	119
2502.38	85
2502.75	125
2503.12	87
2503.49	135
2503.86	139
2504.23	89
2504.6	145
2504.97	91
2505.34	143
2505.7	107
2506.07	129
2506.44	73
2506.81	147
2507.18	89
2507.55	121
2507.92	145
2508.29	85
2508.66	167
2509.03	71
2509.4	139
2509.77	85
2510.14	145
2510.5	103
2510.88	127
2511.24	97
2511.61	149
2511.98	137
2512.35	69
2512.72	157
2513.09	79
2513.46	151
2513.83	87
2514.2	139
2514.56	127
2514.93	103
2515.3	115
2515.67	145
2516.04	129
2516.41	97
2516.78	153
2517.15	89
2517.51	143
2517.88	99
2518.25	127
2518.62	173
2518.99	125
2519.36	117
2519.73	135
2520.09	109
2520.46	119
2520.83	121
2521.2	115
2521.57	155
2521.94	121
2522.3	117
2522.67	133
2523.04	105
2523.41	125
2523.78	141
2524.15	97
2524.51	155
2524.88	93
2525.25	115
2525.62	133
2525.98	115
2526.35	139
2526.72	141
2527.09	103
2527.46	111
2527.83	147
2528.19	93
2528.56	151
2528.93	85
2529.3	141
2529.66	107
2530.03	113
2530.4	127
2530.77	123
2531.13	107
2531.5	119
2531.87	141
2532.24	91
2532.61	167
2532.97	51
2533.34	165
2533.71	109
2534.07	117
2534.44	127
2534.81	85
2535.18	111
2535.54	103
2535.91	161
2536.28	67
2536.65	155
2537.01	47
2537.38	143
2537.75	105
2538.11	139
2538.48	143
2538.85	93
2539.22	129
2539.58	103
2539.95	141
2540.32	111
2540.68	141
2541.05	83
2541.42	155
2541.78	115
2542.15	105
2542.52	153
2542.89	87
2543.25	119
2543.62	119
2543.99	115
2544.35	119
2544.72	119
2545.08	69
2545.45	135
2545.82	105
2546.19	111
2546.55	119
2546.92	99
2547.28	107
2547.65	139
2548.02	125
2548.38	151
2548.75	97
2549.12	113
2549.48	141
2549.85	115
2550.21	127
2550.58	117
2550.95	111
2551.31	135
2551.68	133
2552.05	93
2552.41	167
2552.78	75
2553.14	143
2553.51	123
2553.88	135
2554.24	125
2554.61	93
2554.97	123
2555.34	115
2555.71	151
2556.07	61
2556.44	159
2556.8	51
2557.17	147
2557.53	123
2557.9	107
2558.27	145
2558.63	71
2559	143
2559.36	103
2559.73	141
2560.09	93
2560.46	165
2560.82	103
2561.19	145
2561.55	129
2561.92	113
2562.29	135
2562.65	63
2563.02	141
2563.38	123
2563.75	137
2564.11	97
2564.48	121
2564.84	99
2565.21	137
2565.57	96.9555
2565.94	112.515
2566.3	124.028
2566.67	80.3447
2567.03	140.801
2567.4	114.111
2567.76	142.045
2568.13	108.236
2568.49	115.854
2568.86	103.919
2569.22	138.017
2569.59	101.248
2569.95	116.308
2570.32	134.641
2570.68	97.0495
2571.05	150.328
2571.41	113.281
2571.78	114.14
2572.14	119.41
2572.51	102.227
2572.87	125.753
2573.23	132.662
2573.6	111.743
2573.96	129.685
2574.33	117.378
2574.69	111.314
2575.06	117.056
2575.42	135.213
2575.79	106.849
2576.15	128.634
2576.51	84.8294
2576.88	122.081
2577.24	138.605
2577.61	92.616
2577.97	138.844
2578.34	95.1429
2578.7	133.616
2579.06	119.831
2579.43	130.272
2579.79	109.747
2580.16	141.207
2580.52	96.9423
2580.88	131.262
2581.25	136.496
2581.61	111.254
2581.98	148.916
2582.34	106.843
2582.7	136.262
2583.07	114.579
2583.43	129.373
2583.8	115.429
2584.16	124.256
2584.52	108.233
2584.89	137.868
2585.25	139.528
2585.61	122.926
2585.98	127.983
2586.34	111.867
2586.7	113.356
2587.07	119.231
2587.43	125.845
2587.8	122.217
2588.16	125.076
2588.52	123.661
2588.88	112.043
2589.25	125.427
2589.61	108.353
2589.97	118.918
2590.34	132.152
2590.7	103.305
2591.06	126
2591.43	101.434
2591.79	144.724
2592.15	121.138
2592.52	122.1
2592.88	119.24
2593.24	127.809
2593.61	120.541
2593.97	112.092
2594.33	126.878
2594.7	93.1429
2595.06	157.288
2595.42	102.584
2595.78	118.92
2596.15	142.761
2596.51	96.8445
2596.87	136.27
2597.24	146.6
2597.6	134.377
2597.96	117.141
2598.32	127.229
2598.69	113.509
2599.05	137.064
2599.41	116.942
2599.78	123.762
2600.14	143.2
2600.5	128.111
2600.86	127.696
2600.95	129
2601.31	135
2601.68	113
2602.05	137
2602.42	101
2602.78	123
2603.15	127
2603.52	127
2603.89	123
2604.25	137
2604.62	119
2604.99	111
2605.35	169
2605.72	107
2606.09	163
2606.46	85
2606.82	135
2607.19	129
2607.56	123
2607.92	127
2608.29	131
2608.66	127
2609.03	115
2609.39	157
2609.76	83
2610.13	179
2610.49	87
2610.86	155
2611.23	111
2611.59	119
2611.96	147
2612.33	113
2612.69	133
2613.06	127
2613.43	153
2613.79	111
2614.16	195
2614.53	99
2614.89	169
2615.26	121
2615.62	145
2615.99	161
2616.36	107
2616.72	151
2617.09	135
2617.46	169
2617.82	125
2618.19	193
2618.56	91
2618.92	153
2619.29	155
2619.65	121
2620.02	183
2620.39	101
2620.75	181
2621.12	105
2621.48	179
2621.85	133
2622.22	161
2622.58	91
2622.95	179
2623.31	147
2623.68	151
2624.04	181
2624.41	131
2624.78	143
2625.14	127
2625.51	163
2625.87	173
2626.24	157
2626.6	127
2626.97	167
2627.34	165
2627.7	167
2628.07	167
2628.43	125
2628.8	165
2629.16	145
2629.53	175
2629.9	185
2630.26	169
2630.63	135
2630.99	187
2631.36	163
2631.72	175
2632.09	151
2632.45	153
2632.82	165
2633.18	173
2633.55	157
2633.91	221
2634.28	161
2634.64	191
2635.01	199
2635.37	183
2635.74	193
2636.1	169
2636.47	193
2636.83	205
2637.2	243
2637.56	155
2637.93	251
2638.29	143
2638.66	223
2639.02	203
2639.39	187
2639.75	231
2640.12	147
2640.48	231
2640.84	173
2641.21	231
2641.57	169
2641.94	249
2642.3	169
2642.67	231
2643.03	221
2643.4	213
2643.76	237
2644.13	169
2644.49	231
2644.85	219
2645.22	249
2645.58	187
2645.95	237
2646.31	201
2646.68	251
2647.04	223
2647.4	251
2647.77	301
2648.13	211
2648.5	273
2648.86	259
2649.22	253
2649.59	235
2649.95	265
2650.32	249
2650.68	303
2651.04	247
2651.41	283
2651.77	297
2652.14	237
2652.5	277
2652.86	285
2653.23	279
2653.59	283
2653.95	279
2654.32	289
2654.68	307
2655.05	279
2655.41	277
2655.77	289
2656.14	343
2656.5	317
2656.86	309
2657.23	289
2657.59	343
2657.95	275
2658.32	315
2658.68	321
2659.04	325
2659.41	351
2659.77	363
2660.13	327
2660.5	309
2660.86	351
2661.22	285
2661.59	371
2661.95	325
2662.31	381
2662.68	351
2663.04	311
2663.4	351
2663.76	309
2664.13	359
2664.49	311
2664.85	365
2665.22	325
2665.58	387
2665.94	307
2666.3	397
2666.67	315
2667.03	317
2667.39	415
2667.76	323
2668.12	359
2668.48	325
2668.84	387
2669.21	311
2669.57	395
2669.93	311
2670.29	393
2670.66	359
2671.02	357
2671.38	373
2671.74	317
2672.11	367
2672.47	315
2672.83	335
2673.19	293
2673.56	309
2673.92	301
2674.28	383
2674.64	341
2675	313
2675.37	355
2675.73	277
2676.09	333
2676.45	295
2676.81	327
2677.18	269
2677.54	327
2677.9	277
2678.26	329
2678.62	303
2678.99	315
2679.35	315
2679.71	277
2680.07	301
2680.43	301
2680.8	295
2681.16	301
2681.52	225
2681.88	255
2682.24	297
2682.6	295
2682.97	275
2683.33	271
2683.69	263
2684.05	287
2684.41	271
2684.77	285
2685.13	303
2685.5	239
2685.86	235
2686.22	293
2686.58	251
2686.94	273
2687.3	207
2687.66	251
2688.03	237
2688.39	269
2688.75	227
2689.11	267
2689.47	199
2689.83	241
2690.19	239
2690.55	223
2690.91	273
2691.28	159
2691.64	227
2692	213
2692.36	261
2692.72	197
2693.08	243
2693.44	191
2693.8	205
2694.16	227
2694.52	183
2694.88	271
2695.24	131
2695.61	243
2695.97	171
2696.33	219
2696.69	187
2697.05	177
2697.41	183
2697.77	189
2698.13	183
2698.49	197
2698.85	203
2699.21	127
2699.57	207
2699.93	165
2700.29	205
2700.65	193
2701.01	187
2701.37	191
2701.73	209
2702.09	171
2702.45	165
2702.81	215
2703.18	113
2703.53	223
2703.89	171
2704.25	167
2704.62	161
2704.98	155
2705.33	177
2705.69	183
2706.06	159
2706.42	167
2706.78	169
2707.13	137
2707.49	205
2707.85	165
2708.22	167
2708.57	155
2708.93	131
2709.29	165
2709.65	173
2710.01	127
2710.37	169
2710.73	117
2711.09	151
2711.45	169
2711.81	193
2712.17	143
2712.53	151
2712.89	137
2713.25	179
2713.61	175
2713.97	111
2714.33	195
2714.69	129
2715.05	179
2715.41	171
2715.76	153
2716.12	145
2716.48	147
2716.84	157
2717.2	167
2717.56	169
2717.92	87
2718.28	181
2718.64	87
2719	177
2719.35	139
2719.71	151
2720.07	135
2720.43	125
2720.79	127
2721.15	145
2721.51	157
2721.87	75
2722.23	191
2722.59	89
2722.94	183
2723.3	123
2723.66	153
2724.02	129
2724.38	123
2724.74	123
2725.1	163
2725.46	155
2725.81	105
2726.17	187
2726.53	83
2726.89	173
2727.25	103
2727.61	147
2727.96	149
2728.32	127
2728.68	141
2729.04	123
2729.4	153
2729.75	109
2730.11	145
2730.47	91
2730.83	163
2731.19	101
2731.55	133
2731.91	163
2732.26	99
2732.62	127
2732.98	139
2733.34	129
2733.69	143
2734.05	135
2734.41	115
2734.77	147
2735.13	113
2735.48	149
2735.84	161
2736.2	129
2736.56	135
2736.91	157
2737.27	123
2737.63	143
2737.99	87
2738.35	125
2738.7	125
2739.06	127
2739.42	117
2739.78	145
2740.13	111
2740.49	103
2740.85	165
2741.21	109
2741.56	165
2741.92	69
2742.28	147
2742.64	117
2742.99	123
2743.35	143
2743.71	147
2744.06	115
2744.42	111
2744.78	175
2745.14	99
2745.49	165
2745.85	61
2746.21	165
2746.57	115
2746.92	141
2747.28	125
2747.64	111
2747.99	135
2748.35	105
2748.71	149
2749.06	93
2749.42	175
2749.78	61
2750.13	165
2750.49	125
2750.85	131
2751.2	145
2751.56	87
2751.92	137
2752.27	115
2752.63	145
2752.99	111
2753.34	163
2753.7	73
2754.06	165
2754.41	123
2754.77	131
2755.13	145
2755.48	81
2755.84	131
2756.2	125
2756.55	141
2756.91	115
2757.26	129
2757.62	75
2757.98	169
2758.33	133
2758.69	127
2759.04	139
2759.4	97
2759.76	133
2760.11	111
2760.47	157
2760.83	125
2761.18	123
2761.54	93
2761.89	141
2762.25	131
2762.61	133
2762.96	135
2763.32	105
2763.67	139
2764.03	131
2764.38	127
2764.74	157
2765.1	97
2765.45	127
2765.81	149
2766.16	131
2766.52	131
2766.88	121
2767.23	111
2767.59	131
2767.94	141
2768.3	93
2768.65	157
2769.01	73
2769.36	121
2769.72	163
2770.07	139
2770.43	149
2770.78	81
2771.14	141
2771.49	127
2771.85	149
2772.21	83
2772.56	167
2772.92	87
2773.27	137
2773.63	139
2773.98	101
2774.34	153
2774.69	89
2775.05	131
2775.4	115
2775.76	149
2776.11	101
2776.47	169
2776.82	95
2777.18	151
2777.53	119
2777.89	119
2778.24	159
2778.59	63
2778.95	143
2779.3	107
2779.66	141
2780.01	93
2780.37	153
2780.72	93
2781.08	147
2781.43	127
2781.79	93
2782.14	149
2782.49	67
2782.85	169
2783.2	103
2783.56	127
2783.91	103
2784.27	115
2784.62	119
2784.98	157
2785.33	117
2785.68	113
2786.04	143
2786.39	83
2786.75	153
2787.1	115
2787.46	117
2787.81	137
2788.16	123
2788.52	113
2788.87	147
2789.22	107
2789.58	137
2789.93	115
2790.29	113
2790.64	137
2790.99	135
2791.35	121
2791.7	129
2792.06	91
2792.41	125
2792.76	149
2793.12	113
2793.47	141
2793.82	89
2794.18	119
2794.53	119
2794.88	153
2795.24	103
2795.59	153
2795.95	87
2796.3	159
2796.65	131
2797.01	107
2797.36	149
2797.71	113
2798.07	127
2798.42	105
2798.77	133
2799.13	85
2799.48	165
2799.83	97
2800.19	145
2800.54	117
2800.89	95
2801.24	163
2801.6	71
2801.95	145
2802.3	79
2802.66	147
2803.01	95
2803.36	141
2803.72	95
2804.07	139
2804.42	133
2804.77	85
2805.13	167
2805.48	69
2805.83	153
2806.19	97
2806.54	123
2806.89	115
2807.24	117
2807.6	89
2807.95	153
2808.3	137
2808.65	101
2809.01	161
2809.36	73
2809.71	133
2810.06	99
2810.42	119
2810.77	129
2811.12	113
2811.47	91
2811.83	153
2812.18	103
2812.53	107
2812.88	131
2813.24	85
2813.59	143
2813.94	99
2814.29	131
2814.64	135
2815	111
2815.35	101
2815.7	129
2816.05	123
2816.4	121
2816.76	115
2817.11	101
2817.46	137
2817.81	139
2818.16	105
2818.52	149
2818.87	83
2819.22	117
2819.57	127
2819.92	113
2820.28	143
2820.63	97
2820.98	131
2821.33	109
2821.68	149
2822.03	93
2822.39	151
2822.74	107
2823.09	123
2823.44	119
2823.79	95
2824.14	159
2824.49	51
2824.85	143
2825.2	105
2825.55	147
2825.9	107
2826.25	149
2826.6	101
2826.95	113
2827.31	139
2827.66	89
2828.01	163
2828.36	49
2828.71	145
2829.06	113
2829.41	129
2829.76	119
2830.11	129
2830.46	105
2830.82	141
2831.17	127
2831.52	89
2831.87	155
2832.22	59
2832.57	159
2832.92	99
2833.27	127
2833.62	121
2833.97	115
2834.32	117
2834.68	119
2835.03	121
2835.38	87
2835.73	169
2836.08	75
2836.43	153
2836.78	117
2837.13	119
2837.48	119
2837.83	99
2838.18	133
2838.53	143
2838.88	123
2839.23	107
2839.58	121
2839.93	77
2840.28	141
2840.63	127
2840.98	111
2841.33	129
2841.68	99
2842.03	131
2842.38	129
2842.73	111
2843.08	141
2843.43	103
2843.78	101
2844.13	151
2844.48	107
2844.83	117
2845.18	137
2845.53	99
2845.88	117
2846.23	125
2846.58	95
2846.93	139
2847.28	59
2847.63	115
2847.98	111
2848.33	125
2848.68	105
2849.03	117
2849.38	105
2849.73	125
2850.08	133
2850.43	93
2850.78	161
2851.13	85
2851.48	131
2851.83	105
2852.18	139
2852.53	115
2852.88	93
2853.23	105
2853.57	119
2853.92	147
2854.27	83
2854.62	163
2854.97	77
2855.32	163
2855.67	95
2856.02	127
2856.37	113
2856.72	93
2857.07	115
2857.42	123
2857.76	151
2858.11	55
2858.46	161
2858.81	73
2859.16	157
2859.51	87
2859.86	139
2860.21	143
2860.56	107
2860.91	127
2861.25	127
2861.6	135
2861.95	89
2862.3	137
2862.65	77
2863	147
2863.35	97
2863.69	109
2864.04	131
2864.39	87
2864.74	119
2865.09	133
2865.44	111
2865.78	103
2866.13	135
2866.48	93
2866.83	143
2867.18	89
2867.53	107
2867.88	127
2868.22	97
2868.57	125
2868.92	135
2869.27	105
2869.62	143
2869.96	89
2870.31	103
2870.66	129
2871.01	109
2871.36	87
2871.7	131
2872.05	121
2872.4	109
2872.75	135
2873.1	101
2873.44	171
2873.79	67
2874.14	151
2874.49	107
2874.84	107
2875.18	115
2875.53	127
2875.88	113
2876.23	97
2876.57	149
2876.92	77
2877.27	167
2877.62	49
2877.97	133
2878.31	91
2878.66	121
2879.01	119
2879.36	97
2879.7	115
2880.05	99
2880.4	149
2880.74	93
2881.09	153
2881.44	63
2881.79	155
2882.13	105
2882.48	123
2882.83	115
2883.18	95
2883.52	113
2883.87	105
2884.22	145
2884.56	109
2884.91	161
2885.26	77
2885.61	137
2885.95	97
2886.3	115
2886.65	123
2886.99	99
2887.34	111
2887.69	107
2888.03	121
2888.38	97
2888.73	125
2889.07	65
2889.42	137
2889.77	101
2890.11	121
2890.46	137
2890.81	75
2891.15	113
2891.5	121
2891.85	117
2892.19	129
2892.54	109
2892.89	101
2893.23	147
2893.58	119
2893.93	105
2894.27	113
2894.62	111
2894.96	123
2895.31	127
2895.66	89
2896	155
2896.35	81.35
2896.7	113.358
2897.04	118.782
2897.39	117.376
2897.73	128.139
2898.08	113.803
2898.43	99.3788
2898.77	112.171
2899.12	143.484
2899.46	85.6225
2899.81	146.541
2900.16	72.9074
2900.5	122.59
2900.85	107.372
2901.19	122.268
2901.54	134.967
2901.88	67.2522
2902.23	127.387
2902.58	111.323
2902.92	130.431
2903.27	73.15
2903.61	154.624
2903.96	81.8
2904.31	153.996
2904.65	112.073
2905	112.35
2905.34	119.197
2905.69	61.223
2906.03	141.481
2906.38	104.463
2906.72	123.747
2907.07	81.3568
2907.42	139.453
2907.76	98.7778
2908.11	145.845
2908.45	114.768
2908.8	114.294
2909.14	125.01
2909.49	68.71
2909.83	125.098
2910.18	112.538
2910.52	126.519
2910.87	97.2956
2911.21	129.705
2911.56	103.38
2911.9	136.927
2912.25	109.051
2912.59	116.174
2912.94	120.622
2913.28	77.7223
2913.63	118.838
2913.97	116.941
2914.32	108.376
2914.66	116.546
2915.01	107.142
2915.35	116.794
2915.7	144.796
2916.04	96.1626
2916.39	114.556
2916.73	106.652
2917.08	99.3908
2917.42	111.86
2917.77	118.47
2918.11	109.507
2918.46	115.878
2918.8	101.142
2919.15	105.488
2919.49	131.856
2919.83	99.7492
2920.18	129.369
2920.52	115.509
2920.87	110.61
2921.21	128.465
2921.56	123.05
2921.9	117.928
2922.24	121.565
2922.59	100.581
2922.93	111.123
2923.28	126.85
2923.62	108.445
2923.97	121.269
2924.31	117.69
2924.65	100.088
2925	118.818
2925.34	98.8021
2925.69	109.75
2926.03	115.051
2926.38	99.2963
2926.72	103.308
2927.06	121.905
2927.41	106.172
2927.75	112.593
2928.09	137.815
2928.44	99.9633
2928.78	126.683
2929.13	100.526
2929.47	111.724
2929.81	119.85
2930.16	113.223
2930.5	99.6246
2930.79	155
2931.14	101
2931.49	113
2931.84	143
2932.19	69
2932.54	133
2932.88	99
2933.23	131
2933.58	111
2933.93	107
2934.28	93
2934.63	129
2934.97	107
2935.32	121
2935.67	113
2936.02	89
2936.37	137
2936.71	105
2937.06	109
2937.41	149
2937.76	85
2938.11	125
2938.46	147
2938.8	113
2939.15	151
2939.5	103
2939.85	133
2940.19	97
2940.54	125
2940.89	109
2941.24	149
2941.59	79
2941.93	105
2942.28	123
2942.63	105
2942.98	153
2943.32	55
2943.67	127
2944.02	115
2944.37	139
2944.72	111
2945.06	119
2945.41	93
2945.76	97
2946.11	121
2946.45	103
2946.8	135
2947.15	59
2947.49	145
2947.84	89
2948.19	135
2948.54	101
2948.88	149
2949.23	93
2949.58	121
2949.93	145
2950.27	93
2950.62	167
2950.97	45
2951.31	157
2951.66	91
2952.01	139
2952.35	105
2952.7	109
2953.05	99
2953.4	113
2953.74	137
2954.09	91
2954.44	165
2954.78	41
2955.13	157
2955.48	105
2955.82	127
2956.17	125
2956.52	113
2956.86	141
2957.21	115
2957.56	121
2957.9	97
2958.25	137
2958.6	55
2958.94	147
2959.29	111
2959.64	133
2959.98	127
2960.33	87
2960.68	135
2961.02	129
2961.37	129
2961.72	103
2962.06	137
2962.41	83
2962.76	141
2963.1	109
2963.45	125
2963.79	107
2964.14	79
2964.49	117
2964.83	119
2965.18	107
2965.52	115
2965.87	107
2966.22	71
2966.56	141
2966.91	109
2967.25	109
2967.6	105
2967.95	91
2968.29	137
2968.64	135
2968.98	113
2969.33	145
2969.68	89
2970.02	139
2970.37	115
2970.71	141
2971.06	101
2971.4	119
2971.75	95
2972.1	107
2972.44	135
2972.79	73
2973.13	169
2973.48	79
2973.82	141
2974.17	97
2974.51	123
2974.86	117
2975.21	89
2975.55	107
2975.9	119
2976.24	135
2976.59	77
2976.93	153
2977.28	77
2977.62	155
2977.97	129
2978.31	125
2978.66	91
2979	111
2979.35	97
2979.69	125
2980.04	129
2980.38	83
2980.73	159
2981.07	69
2981.42	153
2981.76	83
2982.11	123
2982.45	113
2982.8	103
2983.14	95
2983.49	127
2983.83	127
2984.18	77
2984.52	147
2984.87	89
2985.21	165
2985.56	85
2985.9	121
2986.25	119
2986.59	97
2986.94	101
2987.28	121
2987.62	117
2987.97	115
2988.31	145
2988.66	77
2989	163
2989.35	95
2989.69	131
2990.03	129
2990.38	81
2990.72	109
2991.07	133
2991.41	111
2991.76	113
2992.1	109
2992.44	119
2992.79	119
2993.13	107
2993.48	99
2993.82	145
2994.17	93
2994.51	103
2994.85	131
2995.2	91
2995.54	155
2995.89	89
2996.23	129
2996.57	113
2996.92	101
2997.26	117
2997.6	133
2997.95	93
2998.29	97
2998.64	125
2998.98	117
2999.32	169
2999.67	73
