#Acq. time (s)=	30
#Accumulations=	1
#Range (cm-¹)=	1050...3000 (30 s) 
#Windows=	6
#Auto scanning=	Off
#Autofocus=	Off
#AutoExposure=	Off
#Spike filter=	Off
#Delay time (s)=	0
#Binning=	1
#Readout mode=	Signal
#DeNoise=	Off
#ICS correction=	Off
#Dark correction=	Off
#Inst. Process=	Off
#Detector Gain=	High Sensitivity
#Detector ADC=	45 kHz       
#Detector temperature (°C)=	-60.1
#Instrument=	LabRAM
#Detector=	Syncerity
#Objective=	x50LWD
#Grating=	1800
#Filter=	25%
#Laser (nm)=	532
#Hole=	100
#E-Cal_Neon=	0
#StageXY=	Marzhauser
#StageZ=	Marzhauser
#X (µm)=	0
#Y (µm)=	0
#Z (µm)=	-1678.85
#Spectral res.(cm-¹)=	1.9
#Full time(mm:ss)=	3:09
#AC=	Not calibrated
#Project=	
#Sample=	
#Site=	
#Title=	Spot 2 350K
#Remark=	
#Date=	19.02.2026 14:40
#Acquired=	19.02.2026 14:40:56
#Edit:Spike=	19.02.2026 14:43:31
#AxisType[0]=Intens
#AxisUnit[0]=Cnt
#AxisType[1]=Spectr
#AxisUnit[1]=1/cm
1050.13	135
1050.59	109
1051.05	151
1051.51	139
1051.97	145
1052.44	119
1052.9	139
1053.36	145
1053.82	133
1054.28	117
1054.74	187
1055.2	99
1055.67	129
1056.13	143
1056.59	125
1057.05	155
1057.51	103
1057.97	169
1058.43	143
1058.89	169
1059.36	103
1059.82	165
1060.28	117
1060.74	133
1061.2	143
1061.66	115
1062.12	197
1062.58	105
1063.04	179
1063.5	117
1063.96	165
1064.43	109
1064.89	151
1065.35	111
1065.81	143
1066.27	145
1066.73	117
1067.19	175
1067.65	73
1068.11	159
1068.57	135
1069.03	139
1069.49	129
1069.95	115
1070.41	141
1070.87	151
1071.33	143
1071.79	173
1072.25	111
1072.71	125
1073.17	159
1073.63	141
1074.09	117
1074.55	139
1075.01	121
1075.47	147
1075.93	165
1076.39	101
1076.85	177
1077.31	77
1077.77	151
1078.23	137
1078.69	127
1079.15	149
1079.61	121
1080.07	159
1080.53	133
1080.99	147
1081.45	95
1081.91	179
1082.37	101
1082.83	161
1083.29	121
1083.75	143
1084.21	169
1084.66	83
1085.12	145
1085.58	107
1086.04	155
1086.5	113
1086.96	151
1087.42	93
1087.88	167
1088.34	135
1088.8	139
1089.25	145
1089.71	113
1090.17	147
1090.63	125
1091.09	147
1091.55	123
1092.01	135
1092.47	123
1092.92	153
1093.38	115
1093.84	139
1094.3	137
1094.76	121
1095.22	173
1095.68	141
1096.13	109
1096.59	157
1097.05	119
1097.51	159
1097.97	155
1098.43	111
1098.88	151
1099.34	107
1099.8	159
1100.26	117
1100.72	167
1101.17	117
1101.63	155
1102.09	105
1102.55	155
1103.01	169
1103.46	91
1103.92	195
1104.38	79
1104.84	165
1105.29	101
1105.75	151
1106.21	139
1106.67	117
1107.12	141
1107.58	121
1108.04	157
1108.5	99
1108.95	175
1109.41	89
1109.87	169
1110.33	131
1110.78	129
1111.24	159
1111.7	109
1112.16	143
1112.61	133
1113.07	147
1113.53	115
1113.98	161
1114.44	127
1114.9	145
1115.35	127
1115.81	159
1116.27	165
1116.72	119
1117.18	145
1117.64	135
1118.1	121
1118.55	137
1119.01	119
1119.47	139
1119.92	139
1120.38	123
1120.84	155
1121.29	133
1121.75	137
1122.2	141
1122.66	157
1123.12	129
1123.57	161
1124.03	117
1124.49	185
1124.94	147
1125.4	115
1125.86	177
1126.31	113
1126.77	165
1127.22	113
1127.68	161
1128.14	101
1128.59	161
1129.05	129
1129.5	177
1129.96	145
1130.41	117
1130.87	179
1131.33	87
1131.78	167
1132.24	107
1132.69	159
1133.15	141
1133.61	129
1134.06	125
1134.52	133
1134.97	139
1135.43	119
1135.88	177
1136.34	107
1136.79	141
1137.25	117
1137.7	133
1138.16	159
1138.61	99
1139.07	121
1139.52	153
1139.98	145
1140.43	151
1140.89	119
1141.34	143
1141.8	149
1142.25	135
1142.71	143
1143.16	157
1143.62	129
1144.07	119
1144.53	167
1144.98	109
1145.44	185
1145.89	91
1146.35	165
1146.8	149
1147.26	127
1147.71	155
1148.16	137
1148.62	141
1149.07	109
1149.53	167
1149.98	97
1150.44	183
1150.89	75
1151.35	159
1151.8	131
1152.25	149
1152.71	171
1153.16	105
1153.62	137
1154.07	125
1154.52	139
1154.98	127
1155.43	159
1155.89	85
1156.34	181
1156.79	137
1157.25	153
1157.7	149
1158.16	115
1158.61	131
1159.06	121
1159.52	133
1159.97	143
1160.42	133
1160.88	111
1161.33	151
1161.78	131
1162.24	147
1162.69	129
1163.14	133
1163.6	161
1164.05	163
1164.5	123
1164.96	183
1165.41	105
1165.86	127
1166.32	135
1166.77	133
1167.22	175
1167.68	97
1168.13	149
1168.58	145
1169.04	169
1169.49	119
1169.94	163
1170.39	93
1170.85	149
1171.3	155
1171.75	103
1172.2	181
1172.66	63
1173.11	169
1173.56	115
1174.01	149
1174.47	131
1174.92	131
1175.37	147
1175.82	143
1176.28	155
1176.73	107
1177.18	161
1177.63	65
1178.09	167
1178.54	175
1178.99	139
1179.44	143
1179.89	127
1180.35	147
1180.8	137
1181.25	129
1181.7	143
1182.15	119
1182.61	121
1183.06	157
1183.51	137
1183.96	127
1184.41	143
1184.87	131
1185.32	145
1185.77	169
1186.22	117
1186.67	161
1187.12	93
1187.58	153
1188.03	151
1188.48	159
1188.93	149
1189.38	131
1189.83	141
1190.28	139
1190.73	187
1191.19	105
1191.64	177
1192.09	101
1192.54	169
1192.99	117
1193.44	119
1193.89	145
1194.34	97
1194.8	153
1195.25	123
1195.7	157
1196.15	99
1196.6	163
1197.05	97
1197.5	167
1197.95	137
1198.4	137
1198.85	159
1199.3	91
1199.75	141
1200.2	121
1200.66	163
1201.11	125
1201.56	133
1202.01	137
1202.46	159
1202.91	141
1203.36	123
1203.81	163
1204.26	87
1204.71	145
1205.16	151
1205.61	127
1206.06	127
1206.51	99
1206.96	135
1207.41	151
1207.86	113
1208.31	179
1208.76	99
1209.21	141
1209.66	133
1210.11	153
1210.56	115
1211.01	131
1211.46	109
1211.91	137
1212.36	153
1212.81	79
1213.26	183
1213.71	103
1214.16	155
1214.61	117
1215.05	127
1215.51	133
1215.95	141
1216.4	139
1216.85	161
1217.3	171
1217.75	69
1218.2	187
1218.65	107
1219.1	159
1219.55	101
1220	119
1220.45	169
1220.9	117
1221.34	163
1221.79	139
1222.24	145
1222.69	101
1223.14	141
1223.59	99
1224.04	159
1224.49	107
1224.94	141
1225.38	161
1225.83	111
1226.28	139
1226.73	141
1227.18	115
1227.63	137
1228.07	135
1228.52	127
1228.97	157
1229.42	115
1229.87	167
1230.32	143
1230.76	137
1231.21	139
1231.66	157
1232.11	113
1232.56	191
1233.01	105
1233.45	171
1233.9	149
1234.35	115
1234.8	173
1235.25	105
1235.69	149
1236.14	115
1236.59	171
1237.04	111
1237.49	141
1237.93	101
1238.38	185
1238.83	125
1239.28	107
1239.72	167
1240.17	91
1240.62	165
1241.07	105
1241.51	153
1241.96	141
1242.41	131
1242.86	125
1243.3	157
1243.75	153
1244.2	145
1244.65	171
1245.09	127
1245.54	167
1245.99	113
1246.44	121
1246.88	185
1247.33	103
1247.78	147
1248.22	151
1248.67	113
1249.12	153
1249.56	103
1250.01	139
1250.46	135
1250.9	155
1251.35	121
1251.8	153
1252.24	107
1252.69	121
1253.14	163
1253.58	109
1254.03	167
1254.48	65
1254.92	151
1255.37	139
1255.82	163
1256.26	131
1256.71	141
1257.15	151
1257.6	121
1258.05	153
1258.49	117
1258.94	177
1259.39	81
1259.83	169
1260.28	167
1260.72	149
1261.17	163
1261.62	117
1262.06	137
1262.51	129
1262.95	151
1263.4	129
1263.85	135
1264.29	99
1264.74	159
1265.18	143
1265.63	137
1266.07	143
1266.52	113
1266.97	141
1267.41	153
1267.86	145
1268.3	151
1268.75	93
1269.19	127
1269.64	169
1270.08	139
1270.53	127
1270.97	117
1271.42	149
1271.86	167
1272.31	153
1272.76	125
1273.2	175
1273.64	85
1274.09	157
1274.53	145
1274.98	119
1275.42	165
1275.87	85
1276.31	161
1276.76	131
1277.2	155
1277.65	107
1278.09	171
1278.54	109
1278.98	157
1279.43	157
1279.87	129
1280.32	187
1280.76	83
1281.21	185
1281.65	113
1282.09	155
1282.54	137
1282.98	149
1283.43	143
1283.87	161
1284.32	153
1284.76	147
1285.21	177
1285.65	95
1286.09	183
1286.54	139
1286.98	141
1287.42	151
1287.87	119
1288.31	147
1288.76	175
1289.2	143
1289.64	149
1290.09	129
1290.53	155
1290.98	165
1291.42	135
1291.86	133
1292.31	137
1292.75	137
1293.19	147
1293.64	159
1294.08	111
1294.53	187
1294.97	111
1295.41	165
1295.85	147
1296.3	171
1296.74	173
1297.19	123
1297.63	143
1298.07	137
1298.51	163
1298.96	101
1299.4	175
1299.84	105
1300.29	185
1300.73	133
1301.17	161
1301.62	159
1302.06	95
1302.5	147
1302.94	123
1303.39	167
1303.83	115
1304.27	155
1304.72	113
1305.16	161
1305.6	127
1306.04	145
1306.49	153
1306.93	97
1307.37	169
1307.81	135
1308.26	155
1308.7	147
1309.14	163
1309.58	141
1310.03	167
1310.47	141
1310.91	135
1311.35	157
1311.8	133
1312.24	141
1312.68	145
1313.12	129
1313.56	163
1314	123
1314.45	128.6
1314.89	91
1315.33	137
1315.77	177
1316.22	117
1316.66	159
1317.1	137
1317.54	189
1317.98	131
1318.43	145
1318.87	125
1319.31	151
1319.75	161
1320.19	101
1320.63	221
1321.07	103
1321.51	171
1321.96	131
1322.4	173
1322.84	151
1323.28	159
1323.72	131
1324.16	173
1324.6	169
1325.05	105
1325.49	193
1325.93	117
1326.37	197
1326.81	133
1327.25	153
1327.69	163
1328.13	157
1328.57	161
1329.02	169
1329.45	143
1329.9	163
1330.34	167
1330.78	139
1331.22	167
1331.66	145
1332.1	153
1332.54	175
1332.98	145
1333.42	149
1333.86	187
1334.3	139
1334.74	201
1335.18	141
1335.62	193
1336.07	185
1336.5	141
1336.95	185
1337.39	191
1337.83	167
1338.27	149
1338.71	213
1339.15	171.8
1339.59	203
1340.03	127
1340.47	187
1340.91	159
1341.35	131
1341.79	189
1342.23	155
1342.67	213
1343.11	147
1343.55	209
1343.99	143
1344.43	239
1344.86	121
1345.31	213
1345.74	177
1346.18	169
1346.62	181
1347.06	133
1347.5	189
1347.94	149
1348.38	181
1348.82	181
1349.26	165
1349.7	121
1350.14	185
1350.58	159
1351.02	155
1351.46	181
1351.9	145
1352.33	157
1352.77	175
1353.21	153
1353.65	203
1354.09	113
1354.53	151
1354.97	157
1355.41	157
1355.85	175
1356.29	129
1356.72	181
1357.16	155
1357.6	171
1358.04	133
1358.48	185
1358.92	121
1359.36	151
1359.79	169
1360.23	135
1360.67	183
1361.11	85
1361.55	199
1361.99	141
1362.43	171
1362.87	119
1363.3	139
1363.74	153
1364.18	123
1364.62	151
1365.06	131
1365.49	191
1365.93	85
1366.37	197
1366.81	135
1367.25	147
1367.68	143
1368.12	107
1368.56	115
1369	151
1369.44	149
1369.87	137
1370.31	165
1370.75	97
1371.19	175
1371.62	155
1372.06	143
1372.5	145
1372.94	111
1373.37	147
1373.81	141
1374.25	123
1374.69	175
1375.12	107
1375.56	139
1376	157
1376.44	141
1376.87	155
1377.31	137
1377.75	163
1378.19	153
1378.62	171
1379.06	123
1379.5	189
1379.93	89
1380.37	153
1380.81	125
1381.25	141
1381.68	169
1382.12	93
1382.56	167
1382.99	135
1383.43	155
1383.87	107
1384.3	235
1384.74	162
1385.18	156.8
1385.61	151
1386.05	129
1386.49	175
1386.92	107
1387.36	181
1387.8	127
1388.23	159
1388.67	109
1389.1	127
1389.54	133
1389.98	149
1390.41	133
1390.85	119
1391.29	149
1391.72	111
1392.16	165
1392.59	143
1393.03	123
1393.47	155
1393.9	123
1394.34	125
1394.77	151
1395.21	143
1395.65	179
1396.08	137
1396.52	149
1396.95	145
1397.39	149
1397.82	123
1398.26	125
1398.7	115
1399.13	141
1399.57	177
1400	113
1400.44	199
1400.87	103
1401.31	153
1401.74	109
1402.18	177
1402.62	137
1403.05	105
1403.49	145
1403.92	149
1404.36	171
1404.79	91
1405.23	155
1405.66	85
1406.1	169
1406.53	107
1406.97	143
1407.4	145
1407.84	125
1408.27	157
1408.71	135
1409.14	161
1409.58	111
1410.01	161
1410.45	107
1410.88	145
1411.31	123
1411.75	127
1412.18	173
1412.62	119
1413.05	169
1413.49	137
1413.92	151
1414.36	153
1414.79	119
1415.23	133
1415.66	143
1416.1	127
1416.53	139
1416.96	131
1417.4	127
1417.83	143
1418.27	151
1418.7	117
1419.13	177
1419.57	99
1420	145
1420.44	141
1420.87	111
1421.3	167
1421.74	99
1422.17	153
1422.61	113
1423.04	177
1423.47	111
1423.91	169
1424.34	123
1424.77	181
1425.21	137
1425.64	109
1426.07	195
1426.51	85
1426.94	159
1427.38	87
1427.81	143
1428.24	157
1428.68	137
1429.11	115
1429.54	149
1429.98	127
1430.41	99
1430.84	183
1431.28	125
1431.71	143
1432.14	125
1432.57	147
1433.01	153
1433.44	105
1433.87	111
1434.31	151
1434.74	119
1435.17	157
1435.61	107
1436.04	147
1436.47	133
1436.9	147
1437.34	123
1437.77	155
1438.2	127
1438.63	133
1439.07	147
1439.5	111
1439.93	171
1440.36	89
1440.8	155
1441.23	129
1441.66	133
1442.09	129
1442.53	133
1442.96	121
1443.39	109
1443.82	149
1444.26	117
1444.69	187
1445.12	79
1445.55	177
1445.98	143
1446.42	137
1446.85	139
1447.28	97
1447.71	151
1448.14	117
1448.57	165
1449.01	129
1449.44	159
1449.87	83
1450.3	171
1450.73	139
1451.17	141
1451.6	147
1452.03	133
1452.46	141
1452.89	129
1453.32	117
1453.76	143
1454.19	137
1454.62	119
1455.05	147
1455.48	129
1455.91	141
1456.34	115
1456.77	133
1457.21	139
1457.64	153
1458.07	123
1458.5	162.833
1458.93	73.7315
1459.36	158.261
1459.79	140.629
1460.22	131.55
1460.65	153.634
1461.08	78.0868
1461.52	157.333
1461.95	126.735
1462.38	157.527
1462.81	120.861
1463.24	175.462
1463.67	101.89
1464.1	144.348
1464.53	145.523
1464.96	116.218
1465.39	169.971
1465.82	73.6952
1466.25	170.14
1466.68	148.097
1467.11	149.32
1467.54	116.872
1467.98	123.823
1468.41	115.037
1468.84	145.151
1469.27	128.021
1469.7	129.222
1470.13	148.314
1470.56	91.5932
1470.99	144.48
1471.42	116.633
1471.85	138.508
1472.28	129.378
1472.71	125.239
1473.14	147.872
1473.57	163.825
1474	282.549
1474.43	134.088
1474.86	126.039
1475.29	122.941
1475.72	157.715
1476.15	129.654
1476.58	149.294
1477.01	126.267
1477.44	132.511
1477.87	140.469
1478.3	136.962
1478.72	136.501
1479.15	153.673
1479.58	128.139
1480.01	126.768
1480.44	142.409
1480.87	120.711
1481.3	156.245
1481.73	103.267
1482.16	157.122
1482.59	153.312
1483.02	144.645
1483.45	120.86
1483.88	168.411
1484.31	117.762
1484.74	152.5
1485.17	131.042
1485.59	140.642
1486.02	156.537
1486.45	124.048
1486.88	142.164
1487.31	137.191
1487.74	139.843
1488.17	122.003
1488.6	144.676
1489.02	117.547
1489.45	178.58
1489.88	127.078
1490.31	142.992
1490.74	149.42
1491.17	116.329
1491.6	166.05
1492.03	127.039
1492.45	135.078
1492.88	115.044
1493.31	139.082
1493.74	127.921
1494.17	155.052
1494.6	123.037
1495.02	126.124
1495.45	146.419
1495.88	125.785
1496.31	153.079
1496.74	126.624
1497.17	124.675
1497.59	133.72
1498.02	135.412
1498.45	152.056
1498.88	144.821
1499.31	129.228
1499.73	137.377
1500.16	145.979
1500.59	134.234
1501.02	150.649
1501.45	138.244
1501.87	117.691
1502.13	147
1502.56	103
1502.99	137
1503.43	137
1503.86	133
1504.29	123
1504.72	161
1505.16	121
1505.59	135
1506.02	145
1506.46	135
1506.89	147
1507.32	133
1507.75	155
1508.19	149
1508.62	111
1509.05	131
1509.49	129
1509.92	129
1510.35	171
1510.78	105
1511.21	141
1511.65	135
1512.08	155
1512.51	135
1512.94	159
1513.38	111
1513.81	137
1514.24	151
1514.67	125
1515.11	207
1515.54	75
1515.97	175
1516.4	113
1516.83	175
1517.27	135
1517.7	165
1518.13	125
1518.56	133
1518.99	171
1519.42	133
1519.86	187
1520.29	83
1520.72	185
1521.15	133
1521.58	153
1522.01	145
1522.45	137
1522.88	149
1523.31	129
1523.74	159
1524.17	135
1524.6	151
1525.04	103
1525.47	163
1525.9	155
1526.33	127
1526.76	131
1527.19	115
1527.62	145
1528.05	163
1528.49	139
1528.92	183
1529.35	119
1529.78	129
1530.21	153
1530.64	145
1531.07	141
1531.5	145
1531.93	127
1532.37	151
1532.8	165
1533.23	103
1533.66	185
1534.09	105
1534.52	163
1534.95	157
1535.38	159
1535.81	161
1536.24	109
1536.67	153
1537.1	143
1537.53	153
1537.96	109
1538.39	207
1538.82	105
1539.26	169
1539.68	127
1540.12	143
1540.55	165
1540.98	103
1541.41	163
1541.84	127
1542.27	157
1542.7	121
1543.13	177
1543.56	125
1543.99	197
1544.42	145
1544.85	135
1545.28	175
1545.71	89
1546.14	167
1546.57	131
1547	155
1547.43	151
1547.86	143
1548.29	139
1548.72	183
1549.14	141
1549.57	153
1550.01	155
1550.43	117
1550.86	175
1551.29	173
1551.72	149
1552.15	171
1552.58	137
1553.01	147
1553.44	171
1553.87	135
1554.3	181
1554.73	119
1555.16	189
1555.59	147
1556.01	173
1556.44	145
1556.87	163
1557.3	127
1557.73	157
1558.16	183
1558.59	115
1559.02	205
1559.45	121
1559.88	177
1560.3	155
1560.73	175
1561.16	161
1561.59	159
1562.02	153
1562.45	155
1562.88	187
1563.31	131
1563.73	211
1564.16	123
1564.59	195
1565.02	149
1565.45	189
1565.88	183
1566.3	173
1566.73	169
1567.16	167
1567.59	181
1568.02	131
1568.45	207
1568.88	165
1569.3	183
1569.73	141
1570.16	197
1570.59	193
1571.01	171
1571.44	185
1571.87	197
1572.3	197
1572.73	197
1573.15	191
1573.58	215
1574.01	213
1574.44	193
1574.87	179
1575.29	235
1575.72	171
1576.15	203
1576.58	205
1577	181
1577.43	241
1577.86	147
1578.29	221
1578.71	207
1579.14	209
1579.57	227
1580	225
1580.42	215
1580.85	215
1581.28	277
1581.71	207
1582.13	293
1582.56	205
1582.99	297
1583.41	289
1583.84	251
1584.27	321
1584.7	253
1585.12	369
1585.55	335
1585.98	389
1586.4	365
1586.83	427
1587.26	375
1587.68	455
1588.11	431
1588.54	451
1588.96	547
1589.39	517
1589.82	577
1590.24	547
1590.67	635
1591.1	625
1591.52	633
1591.95	661
1592.38	673
1592.8	661
1593.23	667
1593.65	643
1594.08	689
1594.51	683
1594.93	625
1595.36	619
1595.79	635
1596.21	545
1596.64	513
1597.06	541
1597.49	477
1597.92	499
1598.34	427
1598.77	429
1599.19	355
1599.62	367
1600.05	319
1600.47	363
1600.9	259
1601.32	299
1601.75	285
1602.18	257
1602.6	281
1603.03	195
1603.45	265
1603.88	205
1604.3	257
1604.73	203
1605.15	235
1605.58	177
1606	227
1606.43	237
1606.86	169
1607.28	243
1607.71	91
1608.13	233
1608.56	183
1608.98	193
1609.41	137
1609.83	181
1610.26	177
1610.68	177
1611.11	193
1611.53	157
1611.96	195
1612.38	117
1612.81	197
1613.23	155
1613.66	153
1614.08	189
1614.51	133
1614.93	155
1615.36	193
1615.78	163
1616.21	177
1616.63	161
1617.06	143
1617.48	171
1617.9	169
1618.33	171
1618.75	161
1619.18	139
1619.6	159
1620.03	187
1620.45	123
1620.88	179
1621.3	109
1621.72	163
1622.15	171
1622.57	157
1623	161
1623.42	141
1623.85	145
1624.27	167
1624.69	177
1625.12	111
1625.54	181
1625.97	125
1626.39	177
1626.81	147
1627.24	171
1627.66	141
1628.08	121
1628.51	161
1628.93	147
1629.36	165
1629.78	89
1630.2	191
1630.63	113
1631.05	175
1631.47	117
1631.9	167
1632.32	155
1632.74	117
1633.17	171
1633.59	131
1634.01	163
1634.44	127
1634.86	157
1635.28	133
1635.71	135
1636.13	123
1636.55	133
1636.98	165
1637.4	123
1637.82	177
1638.25	141
1638.67	133
1639.09	139
1639.51	119
1639.94	143
1640.36	139
1640.78	117
1641.21	137
1641.63	137
1642.05	137
1642.47	141
1642.9	147
1643.32	105
1643.74	165
1644.17	105
1644.59	145
1645.01	139
1645.43	115
1645.86	161
1646.28	111
1646.7	141
1647.12	103
1647.55	151
1647.97	115
1648.39	151
1648.81	127
1649.23	139
1649.66	153
1650.08	85
1650.5	195
1650.92	91
1651.35	167
1651.77	119
1652.19	155
1652.61	129
1653.03	117
1653.45	131
1653.88	145
1654.3	139
1654.72	97
1655.14	167
1655.56	79
1655.99	167
1656.41	99
1656.83	147
1657.25	143
1657.67	109
1658.09	117
1658.52	143
1658.94	129
1659.36	127
1659.78	165
1660.2	111
1660.62	169
1661.04	123
1661.47	125
1661.89	147
1662.31	87
1662.73	145
1663.15	151
1663.57	135
1663.99	149
1664.41	121
1664.83	151
1665.26	151
1665.68	127
1666.1	125
1666.52	165
1666.94	101
1667.36	111
1667.78	169
1668.2	99
1668.62	191
1669.04	71
1669.46	161
1669.89	115
1670.31	115
1670.73	137
1671.15	111
1671.57	139
1671.99	125
1672.41	159
1672.83	101
1673.25	157
1673.67	73
1674.09	159
1674.51	127
1674.93	137
1675.35	161
1675.77	93
1676.19	155
1676.61	109
1677.03	161
1677.45	137
1677.87	145
1678.29	99
1678.71	143
1679.13	121
1679.55	141
1679.97	139
1680.39	83
1680.81	135
1681.23	121
1681.65	133
1682.07	145
1682.49	99
1682.91	87
1683.33	145
1683.75	105
1684.17	133
1684.59	125
1685.01	113
1685.43	143
1685.85	167
1686.27	121
1686.69	165
1687.11	83
1687.53	129
1687.95	131
1688.37	107
1688.78	149
1689.2	81
1689.62	143
1690.04	113
1690.46	181
1690.88	85
1691.3	181
1691.72	83
1692.14	141
1692.56	123
1692.98	93
1693.39	163
1693.81	45
1694.23	141
1694.65	107
1695.07	151
1695.49	115
1695.91	125
1696.33	93
1696.75	133
1697.16	135
1697.58	125
1698	155
1698.42	71
1698.84	165
1699.26	105
1699.68	141
1700.09	129
1700.51	97
1700.93	121
1701.35	137
1701.77	125
1702.19	135
1702.6	117
1703.02	117
1703.44	141
1703.86	137
1704.28	111
1704.69	143
1705.11	103
1705.53	131
1705.95	131
1706.37	95
1706.78	175
1707.2	79
1707.62	121
1708.04	145
1708.46	149
1708.87	129
1709.29	101
1709.71	101
1710.13	113
1710.54	143
1710.96	85
1711.38	197
1711.8	87
1712.22	147
1712.63	119
1713.05	159
1713.47	133
1713.89	123
1714.3	135
1714.72	161
1715.14	139
1715.56	87
1715.97	161
1716.39	71
1716.81	163
1717.22	93
1717.64	137
1718.06	141
1718.48	111
1718.89	143
1719.31	125
1719.73	137
1720.14	91
1720.56	157
1720.98	119
1721.39	167
1721.81	111
1722.23	115
1722.64	169
1723.06	99
1723.48	155
1723.89	129
1724.31	121
1724.73	139
1725.14	109
1725.56	119
1725.98	129
1726.39	97
1726.81	139
1727.23	131
1727.64	103
1728.06	125
1728.48	159
1728.89	103
1729.31	163
1729.72	89
1730.14	131
1730.56	103
1730.97	79
1731.39	149
1731.8	87
1732.22	133
1732.64	115
1733.05	143
1733.47	91
1733.89	151
1734.3	101
1734.72	151
1735.13	139
1735.55	65
1735.96	175
1736.38	79
1736.8	153
1737.21	113
1737.63	161
1738.04	113
1738.46	123
1738.87	97
1739.29	133
1739.71	131
1740.12	87
1740.54	155
1740.95	113
1741.37	147
1741.78	103
1742.2	125
1742.61	153
1743.03	99
1743.44	117
1743.86	149
1744.27	123
1744.69	119
1745.1	145
1745.52	107
1745.93	137
1746.35	101
1746.77	133
1747.18	165
1747.59	117
1748.01	119
1748.42	147
1748.84	113
1749.25	145
1749.67	117
1750.08	115
1750.5	137
1750.91	101
1751.33	111
1751.74	127
1752.16	97
1752.57	107
1752.99	145
1753.4	105
1753.81	177
1754.23	65
1754.64	153
1755.06	111
1755.47	123
1755.89	141
1756.3	101
1756.72	135
1757.13	97
1757.54	153
1757.96	91
1758.37	155
1758.78	69
1759.2	175
1759.61	111
1760.03	117
1760.44	193
1760.86	89
1761.27	139
1761.68	115
1762.1	143
1762.51	95
1762.92	135
1763.34	93
1763.75	153
1764.17	115
1764.58	129
1764.99	151
1765.41	97
1765.82	135
1766.23	107
1766.65	107
1767.06	141
1767.47	109
1767.89	93
1768.3	129
1768.71	103
1769.13	143
1769.54	103
1769.95	105
1770.37	117
1770.78	139
1771.19	117
1771.61	151
1772.02	91
1772.43	121
1772.85	143
1773.26	109
1773.67	151
1774.09	97
1774.5	129
1774.91	119
1775.32	141
1775.74	77
1776.15	121
1776.56	79
1776.97	139
1777.39	137
1777.8	105
1778.21	165
1778.62	67
1779.04	137
1779.45	111
1779.86	147
1780.28	93
1780.69	133
1781.1	91
1781.51	145
1781.92	133
1782.34	97
1782.75	171
1783.16	59
1783.57	161
1783.99	113
1784.4	149
1784.81	103
1785.22	105
1785.63	127
1786.05	147
1786.46	125
1786.87	119
1787.28	141
1787.69	85
1788.11	163
1788.52	125
1788.93	121
1789.34	135
1789.75	95
1790.17	141
1790.58	135
1790.99	107
1791.4	147
1791.81	101
1792.22	121
1792.63	129
1793.05	127
1793.46	121
1793.87	111
1794.28	113
1794.69	125
1795.1	141
1795.52	85
1795.93	167
1796.34	93
1796.75	147
1797.16	115
1797.57	143
1797.98	125
1798.39	87
1798.81	115
1799.22	121
1799.63	125
1800.04	91
1800.45	167
1800.86	85
1801.27	133
1801.68	107
1802.09	123
1802.5	121
1802.91	63
1803.32	125
1803.73	125
1804.15	131
1804.56	85
1804.97	151
1805.38	87
1805.79	167
1806.2	103
1806.61	125
1807.02	151
1807.43	79
1807.84	149
1808.25	135
1808.66	139
1809.07	103
1809.48	125
1809.89	107
1810.3	153
1810.71	97
1811.12	113
1811.53	123
1811.94	85
1812.35	131
1812.76	125
1813.17	131
1813.58	135
1813.99	83
1814.4	129
1814.81	131
1815.22	105
1815.63	143
1816.04	101
1816.45	127
1816.86	113
1817.27	161
1817.68	95
1818.09	121
1818.5	101
1818.91	137
1819.32	137
1819.73	87
1820.14	165
1820.55	67
1820.96	131
1821.37	121
1821.78	143
1822.19	105
1822.6	127
1823.01	115
1823.42	125
1823.82	147
1824.23	75
1824.64	183
1825.05	93
1825.46	165
1825.87	93
1826.28	121
1826.69	133
1827.1	117
1827.51	103
1827.91	133
1828.32	141
1828.73	85
1829.14	149
1829.55	67
1829.96	137
1830.37	87
1830.78	123
1831.18	135
1831.59	85
1832	129
1832.41	145
1832.82	125
1833.23	121
1833.64	125
1834.05	101
1834.45	145
1834.86	115
1835.27	121
1835.68	115
1836.09	95
1836.49	105
1836.9	129
1837.31	91
1837.72	141
1838.13	97
1838.53	135
1838.94	121
1839.35	95
1839.76	133
1840.17	113
1840.58	115
1840.98	103
1841.39	139
1841.8	81
1842.21	169
1842.61	77
1843.02	155
1843.43	103
1843.84	107
1844.25	165
1844.65	97
1845.06	135
1845.47	85
1845.88	145
1846.28	95.1372
1846.69	170.064
1847.1	87.6697
1847.51	146.111
1847.91	126.319
1848.32	119.54
1848.73	161.733
1849.14	72.9544
1849.54	148.175
1849.95	121.947
1850.36	132.07
1850.77	132.144
1851.17	121.376
1851.58	102.002
1851.99	130.935
1852.39	110.724
1852.8	114.572
1853.21	129.112
1853.62	113.429
1854.02	134.511
1854.43	101.686
1854.84	112.835
1855.24	139.157
1855.65	101.162
1856.06	123.024
1856.46	136.448
1856.87	101.886
1857.28	155.185
1857.68	115.368
1858.09	128.749
1858.5	122.74
1858.9	120.963
1859.31	112.521
1859.72	145.005
1860.12	105.424
1860.53	119.094
1860.94	140.793
1861.34	107.787
1861.75	151.644
1862.15	83.3711
1862.56	116.254
1862.97	127.366
1863.37	125.933
1863.78	113.159
1864.19	126.908
1864.59	109.353
1865	130.035
1865.4	124.415
1865.81	113.08
1866.22	134.737
1866.62	82.4938
1867.03	131.756
1867.43	125.128
1867.84	126.912
1868.25	118.744
1868.65	116.971
1869.06	107.241
1869.46	140.022
1869.87	119.741
1870.28	120.705
1870.68	129.97
1871.09	95.6665
1871.49	128.993
1871.9	120.702
1872.3	127.026
1872.71	117.737
1873.12	124.145
1873.52	119.381
1873.93	132.522
1874.33	112.005
1874.74	115.177
1875.14	120.53
1875.55	125.689
1875.95	140.44
1876.36	120.154
1876.76	106.592
1877.17	109.092
1877.57	115.65
1877.98	123.668
1878.38	130.758
1878.79	109.985
1879.19	108.115
1879.6	116.22
1880	114.316
1880.41	125.829
1880.81	124.926
1881.22	115.991
1881.63	111.915
1882.03	120.925
1882.43	126.109
1882.84	128.527
1883.24	121.785
1883.65	110.179
1884.05	129.644
1884.46	121.061
1884.86	115.198
1885.27	121.838
1885.67	113.881
1886.08	125.561
1886.48	123.008
1886.89	124.824
1887.29	135.09
1887.69	108.383
1888.1	106.372
1888.5	136.561
1888.85	125
1889.26	125
1889.67	109
1890.08	103
1890.49	117
1890.9	143
1891.3	97
1891.71	175
1892.12	85
1892.53	145
1892.94	127
1893.35	115
1893.76	119
1894.17	81
1894.58	125
1894.99	109
1895.4	147
1895.81	93
1896.22	187
1896.62	71
1897.03	141
1897.44	121
1897.85	111
1898.26	149
1898.67	61
1899.08	151
1899.49	117
1899.9	143
1900.3	81
1900.71	141
1901.12	89
1901.53	137
1901.94	115
1902.35	117
1902.75	147
1903.16	65
1903.57	149
1903.98	123
1904.39	131
1904.8	85
1905.21	105
1905.61	105
1906.02	151
1906.43	117
1906.84	107
1907.25	123
1907.66	95
1908.06	147
1908.47	133
1908.88	113
1909.29	123
1909.7	97
1910.1	115
1910.51	137
1910.92	103
1911.33	127
1911.73	117
1912.14	125
1912.55	145
1912.96	137
1913.37	115
1913.77	139
1914.18	97
1914.59	149
1915	125
1915.4	87
1915.81	155
1916.22	89
1916.63	141
1917.03	113
1917.44	151
1917.85	95
1918.26	153
1918.66	85
1919.07	141
1919.48	141
1919.89	73
1920.29	161
1920.7	63
1921.11	157
1921.51	77
1921.92	131
1922.33	121
1922.73	119
1923.14	111
1923.55	121
1923.96	129
1924.36	69
1924.77	163
1925.18	99
1925.58	169
1925.99	95
1926.4	139
1926.8	129
1927.21	107
1927.62	125
1928.02	147
1928.43	125
1928.84	111
1929.24	145
1929.65	97
1930.06	137
1930.46	87
1930.87	121
1931.28	143
1931.68	95
1932.09	103
1932.49	119
1932.9	105
1933.31	133
1933.71	113
1934.12	113
1934.53	141
1934.93	95
1935.34	133
1935.74	143
1936.15	99
1936.56	131
1936.96	133
1937.37	125
1937.78	153
1938.18	91
1938.59	139
1938.99	143
1939.4	119
1939.8	117
1940.21	129
1940.62	111
1941.02	89
1941.43	153
1941.83	101
1942.24	175
1942.64	55
1943.05	155
1943.45	99
1943.86	125
1944.27	137
1944.67	95
1945.08	125
1945.48	117
1945.89	143
1946.29	85
1946.7	151
1947.1	75
1947.51	153
1947.91	109
1948.32	121
1948.72	157
1949.13	97
1949.53	141
1949.94	107
1950.34	163
1950.75	129
1951.15	137
1951.56	87
1951.96	157
1952.37	139
1952.77	115
1953.18	145
1953.58	91
1953.99	135
1954.39	111
1954.8	139
1955.2	141
1955.61	121
1956.01	81
1956.42	143
1956.82	129
1957.23	125
1957.63	121
1958.03	111
1958.44	141
1958.84	121
1959.25	125
1959.65	145
1960.06	101
1960.46	105
1960.86	127
1961.27	123
1961.67	133
1962.08	91
1962.48	119
1962.89	121
1963.29	137
1963.69	115
1964.1	175
1964.5	87
1964.91	117
1965.31	135
1965.71	113
1966.12	159
1966.52	71
1966.93	133
1967.33	107
1967.73	143
1968.14	91
1968.54	121
1968.94	83
1969.35	121
1969.75	135
1970.15	105
1970.56	165
1970.96	35
1971.37	175
1971.77	93
1972.17	125
1972.58	113
1972.98	115
1973.38	107
1973.79	121
1974.19	147
1974.59	135
1974.99	161
1975.4	81
1975.8	137
1976.21	113
1976.61	139
1977.01	115
1977.41	99
1977.82	117
1978.22	139
1978.62	129
1979.03	129
1979.43	119
1979.83	85
1980.24	141
1980.64	119
1981.04	131
1981.44	123
1981.85	107
1982.25	121
1982.65	129
1983.05	93
1983.46	141
1983.86	121
1984.26	121
1984.66	143
1985.07	119
1985.47	135
1985.87	125
1986.27	121
1986.68	145
1987.08	143
1987.48	107
1987.88	173
1988.29	75
1988.69	141
1989.09	97
1989.49	137
1989.89	123
1990.3	93
1990.7	117
1991.1	137
1991.5	155
1991.9	77
1992.31	175
1992.71	67
1993.11	159
1993.51	113
1993.91	137
1994.32	123
1994.72	97
1995.12	159
1995.52	117
1995.92	149
1996.32	99
1996.73	155
1997.13	95
1997.53	163
1997.93	109
1998.33	117
1998.73	141
1999.14	99
1999.54	143
1999.94	129
2000.34	109
2000.74	129
2001.14	133
2001.54	113
2001.94	139
2002.35	107
2002.75	121
2003.15	143
2003.55	95
2003.95	131
2004.35	135
2004.75	101
2005.15	139
2005.55	85
2005.96	117
2006.36	133
2006.76	89
2007.16	135
2007.56	127
2007.96	125
2008.36	103
2008.76	151
2009.16	103
2009.56	163
2009.96	73
2010.36	133
2010.76	145
2011.16	109
2011.57	155
2011.97	113
2012.37	141
2012.77	101
2013.17	139
2013.57	97
2013.97	163
2014.37	83
2014.77	161
2015.17	127
2015.57	89
2015.97	181
2016.37	69
2016.77	151
2017.17	77
2017.57	145
2017.97	115
2018.37	131
2018.77	87
2019.17	149
2019.57	123
2019.97	109
2020.37	159
2020.77	87
2021.17	143
2021.57	85
2021.97	145
2022.37	155
2022.77	125
2023.17	101
2023.57	143
2023.97	115
2024.37	123
2024.77	133
2025.17	103
2025.57	149
2025.97	123
2026.37	113
2026.77	147
2027.16	119
2027.56	111
2027.96	137
2028.36	121
2028.76	143
2029.16	99
2029.56	121
2029.96	109
2030.36	129
2030.76	119
2031.16	147
2031.56	81
2031.96	145
2032.35	131
2032.75	99
2033.15	153
2033.55	85
2033.95	133
2034.35	111
2034.75	143
2035.15	109
2035.54	129
2035.94	109
2036.34	103
2036.74	129
2037.14	105
2037.54	165
2037.94	63
2038.34	151
2038.74	121
2039.13	129
2039.53	133
2039.93	107
2040.33	129
2040.73	107
2041.12	143
2041.52	101
2041.92	165
2042.32	49
2042.72	165
2043.12	127
2043.51	133
2043.91	129
2044.31	91
2044.71	141
2045.11	115
2045.51	133
2045.9	117
2046.3	143
2046.7	69
2047.1	163
2047.49	135
2047.89	121
2048.29	127
2048.69	89
2049.09	127
2049.48	133
2049.88	127
2050.28	125
2050.68	113
2051.07	97
2051.47	139
2051.87	111
2052.27	133
2052.67	105
2053.06	111
2053.46	127
2053.86	137
2054.26	103
2054.65	167
2055.05	87
2055.45	121
2055.85	141
2056.24	145
2056.64	131
2057.04	107
2057.43	121
2057.83	125
2058.23	157
2058.62	103
2059.02	167
2059.42	85
2059.82	145
2060.21	105
2060.61	123
2061.01	153
2061.4	75
2061.8	149
2062.2	121
2062.59	161
2062.99	87
2063.39	165
2063.79	91
2064.18	165
2064.58	117
2064.97	123
2065.37	155
2065.77	61
2066.16	153
2066.56	117
2066.96	123
2067.35	91
2067.75	129
2068.15	113
2068.54	147
2068.94	125
2069.34	109
2069.73	131
2070.13	75
2070.52	143
2070.92	117
2071.32	121
2071.71	117
2072.11	97
2072.51	131
2072.9	139
2073.3	109
2073.69	149
2074.09	113
2074.49	107
2074.88	117
2075.28	127
2075.67	107
2076.07	125
2076.47	73
2076.86	143
2077.26	145
2077.65	81
2078.05	145
2078.44	75
2078.84	139
2079.23	115
2079.63	139
2080.03	101
2080.42	157
2080.82	111
2081.21	125
2081.61	135
2082	101
2082.4	157
2082.79	103
2083.19	141
2083.58	101
2083.98	139
2084.37	107
2084.77	147
2085.16	99
2085.56	141
2085.95	125
2086.35	105
2086.74	163
2087.14	87
2087.53	167
2087.93	117
2088.32	159
2088.72	127
2089.11	127
2089.51	107
2089.9	127
2090.3	117
2090.69	99
2091.09	149
2091.48	83
2091.88	141
2092.27	111
2092.67	123
2093.06	153
2093.46	109
2093.85	113
2094.25	137
2094.64	115
2095.03	147
2095.43	107
2095.82	139
2096.22	127
2096.61	121
2097.01	117
2097.4	147
2097.79	93
2098.19	123
2098.58	151
2098.98	111
2099.37	153
2099.76	75
2100.16	141
2100.55	107
2100.95	123
2101.34	123
2101.73	129
2102.13	113
2102.52	125
2102.92	137
2103.31	111
2103.7	175
2104.1	53
2104.49	135
2104.88	111
2105.28	143
2105.67	127
2106.07	127
2106.46	95
2106.85	121
2107.25	137
2107.64	97
2108.03	161
2108.43	55
2108.82	173
2109.21	101
2109.61	135
2110	129
2110.39	101
2110.79	131
2111.18	115
2111.57	155
2111.97	97
2112.36	135
2112.75	75
2113.15	155
2113.54	125
2113.93	117
2114.32	141
2114.72	87
2115.11	137
2115.5	129
2115.9	117
2116.29	133
2116.68	103
2117.08	107
2117.47	137
2117.86	119
2118.25	107
2118.65	119
2119.04	101
2119.43	127
2119.82	155
2120.22	101
2120.61	139
2121	71
2121.39	117
2121.79	127
2122.18	119
2122.57	133
2122.96	83
2123.36	127
2123.75	117
2124.14	137
2124.53	91
2124.93	163
2125.32	95
2125.71	137
2126.1	129
2126.49	117
2126.89	147
2127.28	57
2127.67	121
2128.06	117
2128.45	133
2128.85	79
2129.24	147
2129.63	97
2130.02	163
2130.41	125
2130.81	121
2131.2	153
2131.59	91
2131.98	153
2132.37	103
2132.76	153
2133.16	99
2133.55	137
2133.94	101
2134.33	139
2134.72	129
2135.11	117
2135.5	141
2135.9	77
2136.29	157
2136.68	111
2137.07	137
2137.46	113
2137.85	99
2138.24	119
2138.63	133
2139.03	103
2139.42	119
2139.81	109
2140.2	99
2140.59	131
2140.98	123
2141.37	113
2141.76	133
2142.15	89
2142.55	129
2142.94	131
2143.33	99
2143.72	165
2144.11	95
2144.5	147
2144.89	113
2145.28	147
2145.67	107
2146.06	123
2146.45	85
2146.84	125
2147.23	135
2147.62	85
2148.02	149
2148.4	73
2148.8	147
2149.19	89
2149.58	141
2149.97	99
2150.36	123
2150.75	101
2151.14	143
2151.53	135
2151.92	75
2152.31	147
2152.7	81
2153.09	165
2153.48	97
2153.87	115
2154.26	129
2154.65	115
2155.04	123
2155.43	135
2155.82	137
2156.21	99
2156.6	163
2156.99	83
2157.38	157
2157.77	103
2158.16	121
2158.55	133
2158.94	87
2159.33	117
2159.72	131
2160.11	95
2160.5	125
2160.89	109
2161.28	109
2161.66	121
2162.05	111
2162.44	127
2162.83	131
2163.22	93
2163.61	131
2164	149
2164.39	95
2164.78	169
2165.17	85
2165.56	143
2165.95	111
2166.34	119
2166.73	109
2167.11	121
2167.5	95
2167.89	109
2168.28	145
2168.67	85
2169.06	169
2169.45	59
2169.84	155
2170.23	109
2170.62	127
2171	125
2171.39	97
2171.78	101
2172.17	83
2172.56	139
2172.95	89
2173.34	165
2173.73	53
2174.11	147
2174.5	111
2174.89	131
2175.28	125
2175.67	93
2176.06	117
2176.45	111
2176.83	127
2177.22	123
2177.61	129
2178	83
2178.39	159
2178.78	127
2179.16	113
2179.55	135
2179.94	85
2180.33	135
2180.72	117
2181.1	103
2181.49	133
2181.88	87
2182.27	101
2182.66	141
2183.04	105
2183.43	119
2183.82	105
2184.21	101
2184.6	121
2184.98	123
2185.37	107
2185.76	161
2186.15	67
2186.53	135
2186.92	129
2187.31	117
2187.7	155
2188.08	91
2188.47	125
2188.86	109
2189.25	135
2189.63	83
2190.02	161
2190.41	71
2190.8	143
2191.18	123
2191.57	101
2191.96	151
2192.34	71
2192.73	163
2193.12	85
2193.51	143
2193.89	79
2194.28	127
2194.67	95
2195.06	139
2195.44	115
2195.83	85
2196.22	151
2196.6	49
2196.99	139
2197.38	105
2197.76	133
2198.15	107
2198.54	129
2198.92	109
2199.31	141
2199.7	125
2200.08	125
2200.47	123
2200.86	71
2201.24	141
2201.63	135
2202.02	131
2202.4	139
2202.79	107
2203.18	107
2203.56	143
2203.95	105
2204.34	103
2204.72	95
2205.11	99
2205.49	121
2205.88	119
2206.27	109
2206.65	107
2207.04	91
2207.43	135
2207.81	133
2208.2	107
2208.58	139
2208.97	71
2209.36	137
2209.74	113
2210.13	153
2210.51	111
2210.9	143
2211.29	103
2211.67	121
2212.06	139
2212.44	97
2212.83	175
2213.21	65
2213.6	155
2213.98	89
2214.37	127
2214.76	125
2215.14	105
2215.53	103
2215.91	107.058
2216.3	138.839
2216.69	58.0615
2217.07	151.431
2217.46	68.2418
2217.84	157.009
2218.23	97.1021
2218.61	122.163
2219	129.581
2219.38	84.3637
2219.77	132.911
2220.15	128.387
2220.54	137.619
2220.92	94.3668
2221.31	142.41
2221.69	89.364
2222.08	143.743
2222.46	117.694
2222.85	109.004
2223.23	135.45
2223.62	104.895
2224	127.255
2224.39	118.783
2224.77	122.396
2225.16	106.071
2225.54	122.324
2225.93	104.88
2226.31	127.912
2226.7	111.867
2227.08	101.682
2227.47	122.452
2227.85	103.367
2228.23	132.815
2228.62	123.492
2229	112.408
2229.39	127.179
2229.77	106.024
2230.16	129.02
2230.54	123.383
2230.92	111.104
2231.31	119.066
2231.69	129.536
2232.08	109.473
2232.46	122.92
2232.85	128.675
2233.23	96.7962
2233.62	126.352
2234	99.417
2234.38	124.588
2234.77	116.787
2235.15	99.9347
2235.54	118.383
2235.92	108.096
2236.3	136.983
2236.69	113.51
2237.07	132.003
2237.46	97.2493
2237.84	128.859
2238.22	107.532
2238.61	127.538
2238.99	111.322
2239.37	101.944
2239.76	125.195
2240.14	114.638
2240.53	130.259
2240.91	116.93
2241.29	127.267
2241.68	121.587
2242.06	127.598
2242.44	133.709
2242.83	121.153
2243.21	110.888
2243.59	136.113
2243.98	103.608
2244.36	124.09
2244.74	118.409
2245.13	125.639
2245.51	110.963
2245.89	113.136
2246.28	107.385
2246.66	125.541
2247.04	126.885
2247.43	90.4548
2247.81	142.677
2248.19	77.9185
2248.58	146.698
2248.96	115.482
2249.34	124.266
2249.73	105.36
2250.11	114.364
2250.49	115.705
2250.88	144.394
2251.26	117.958
2251.64	102.54
2252.02	164.062
2252.41	89.4286
2252.79	176.73
2252.8	179
2253.18	85
2253.57	137
2253.96	149
2254.35	97
2254.74	105
2255.12	121
2255.51	113
2255.9	115
2256.29	121
2256.67	103
2257.06	139
2257.45	95
2257.84	123
2258.22	145
2258.61	103
2259	121
2259.39	137
2259.77	129
2260.16	139
2260.55	91
2260.94	133
2261.32	135
2261.71	101
2262.1	115
2262.48	121
2262.87	97
2263.26	107
2263.65	143
2264.03	117
2264.42	165
2264.81	89
2265.19	137
2265.58	99
2265.97	103
2266.35	163
2266.74	107
2267.13	123
2267.51	97
2267.9	145
2268.29	77
2268.67	171
2269.06	69
2269.45	139
2269.83	113
2270.22	137
2270.61	139
2270.99	95
2271.38	125
2271.77	103
2272.15	131
2272.54	85
2272.93	167
2273.31	67
2273.7	137
2274.08	125
2274.47	113
2274.86	125
2275.24	89
2275.63	137
2276.02	101
2276.4	133
2276.79	119
2277.17	133
2277.56	75
2277.95	143
2278.33	97
2278.72	111
2279.1	137
2279.49	101
2279.88	145
2280.26	87
2280.65	139
2281.03	133
2281.42	129
2281.8	85
2282.19	127
2282.58	127
2282.96	105
2283.35	143
2283.73	83
2284.12	139
2284.5	113
2284.89	127
2285.28	143
2285.66	119
2286.05	99
2286.43	139
2286.82	141
2287.2	133
2287.59	99
2287.97	117
2288.36	117
2288.74	125
2289.13	107
2289.51	153
2289.9	73
2290.28	109
2290.67	127
2291.05	107
2291.44	153
2291.82	73
2292.21	119
2292.59	105
2292.98	155
2293.36	103
2293.75	149
2294.13	97
2294.52	141
2294.9	131
2295.29	117
2295.67	177
2296.06	65
2296.44	153
2296.83	123
2297.21	151
2297.6	107
2297.98	145
2298.36	73
2298.75	151
2299.13	133
2299.52	97
2299.9	157
2300.29	45
2300.67	171
2301.06	113
2301.44	149
2301.82	85
2302.21	125
2302.59	119
2302.98	145
2303.36	129
2303.75	117
2304.13	161
2304.51	69
2304.9	143
2305.28	121
2305.67	127
2306.05	133
2306.44	111
2306.82	127
2307.2	129
2307.59	115
2307.97	125
2308.35	117
2308.74	95
2309.12	143
2309.51	133
2309.89	105
2310.27	127
2310.66	89
2311.04	123
2311.42	137
2311.81	91
2312.19	147
2312.57	89
2312.96	131
2313.34	111
2313.73	137
2314.11	81
2314.49	143
2314.88	105
2315.26	147
2315.64	131
2316.03	75
2316.41	153
2316.79	79
2317.18	153
2317.56	97
2317.94	137
2318.32	107
2318.71	139
2319.09	99
2319.47	147
2319.86	129
2320.24	91
2320.62	157
2321.01	79
2321.39	149
2321.77	85
2322.15	153
2322.54	109
2322.92	131
2323.3	117
2323.69	145
2324.07	145
2324.45	111
2324.83	157
2325.22	87
2325.6	155
2325.98	91
2326.36	123
2326.75	155
2327.13	135
2327.51	109
2327.89	129
2328.28	131
2328.66	101
2329.04	117
2329.42	115
2329.81	151
2330.19	111
2330.57	119
2330.95	159
2331.33	113
2331.72	111
2332.1	149
2332.48	111
2332.86	143
2333.24	95
2333.63	131
2334.01	119
2334.39	117
2334.77	127
2335.15	161
2335.54	111
2335.92	117
2336.3	141
2336.68	107
2337.06	143
2337.44	87
2337.83	131
2338.21	103
2338.59	135
2338.97	111
2339.35	123
2339.73	97
2340.12	107
2340.5	157
2340.88	113
2341.26	165
2341.64	59
2342.02	169
2342.41	107
2342.79	121
2343.17	111
2343.55	131
2343.93	123
2344.31	97
2344.69	151
2345.07	101
2345.45	179
2345.84	55
2346.22	153
2346.6	125
2346.98	121
2347.36	123
2347.74	89
2348.12	131
2348.5	113
2348.88	135
2349.26	99
2349.65	129
2350.03	69
2350.41	143
2350.79	137
2351.17	129
2351.55	135
2351.93	101
2352.31	137
2352.69	121
2353.07	121
2353.45	157
2353.83	85
2354.21	111
2354.59	137
2354.98	123
2355.35	105
2355.74	127
2356.12	107
2356.5	131
2356.88	151
2357.26	113
2357.64	153
2358.02	95
2358.4	137
2358.78	149
2359.16	123
2359.54	165
2359.92	101
2360.3	135
2360.68	123
2361.06	155
2361.44	93
2361.82	171
2362.2	85
2362.58	149
2362.96	129
2363.34	131
2363.72	143
2364.1	85
2364.48	117
2364.86	117
2365.24	149
2365.62	91
2366	175
2366.38	61
2366.75	155
2367.14	111
2367.51	103
2367.89	159
2368.27	73
2368.65	161
2369.03	113
2369.41	153
2369.79	89
2370.17	137
2370.55	81
2370.93	155
2371.31	121
2371.69	101
2372.07	153
2372.45	73
2372.83	161
2373.2	109
2373.58	129
2373.96	103
2374.34	125
2374.72	111
2375.1	157
2375.48	119
2375.86	115
2376.24	141
2376.61	97
2376.99	139
2377.37	123
2377.75	121
2378.13	113
2378.51	95
2378.89	131
2379.27	137
2379.65	95
2380.02	119
2380.4	87
2380.78	117
2381.16	123
2381.54	133
2381.92	111
2382.3	139
2382.67	105
2383.05	155
2383.43	129
2383.81	91
2384.19	131
2384.57	97
2384.94	143
2385.32	119
2385.7	133
2386.08	113
2386.46	157
2386.83	97
2387.21	159
2387.59	137
2387.97	99
2388.35	161
2388.73	87
2389.1	147
2389.48	95
2389.86	157
2390.24	119
2390.62	147
2390.99	99
2391.37	143
2391.75	143
2392.13	109
2392.5	155
2392.88	59
2393.26	173
2393.64	101
2394.01	153
2394.39	135
2394.77	127
2395.15	91
2395.52	133
2395.9	121
2396.28	113
2396.66	141
2397.04	117
2397.41	133
2397.79	123
2398.17	127
2398.54	151
2398.92	95
2399.3	113
2399.68	131
2400.05	123
2400.43	145
2400.81	111
2401.18	117
2401.56	127
2401.94	121
2402.32	133
2402.69	161
2403.07	99
2403.45	107
2403.82	139
2404.2	105
2404.58	159
2404.95	73
2405.33	135
2405.71	131
2406.09	153
2406.46	131
2406.84	145
2407.22	111
2407.59	121
2407.97	137
2408.34	109
2408.72	169
2409.1	55
2409.47	173
2409.85	117
2410.23	149
2410.6	119
2410.98	145
2411.36	111
2411.73	113
2412.11	139
2412.49	95
2412.86	167
2413.24	65
2413.61	163
2413.99	109
2414.37	161
2414.74	141
2415.12	131
2415.5	113
2415.87	119
2416.25	141
2416.62	93
2417	149
2417.37	81
2417.75	145
2418.13	127
2418.5	137
2418.88	131
2419.25	117
2419.63	141
2420.01	147
2420.38	137
2420.76	147
2421.13	137
2421.51	89
2421.88	139
2422.26	129
2422.64	135
2423.01	133
2423.39	145
2423.76	137
2424.14	139
2424.51	111
2424.89	147
2425.26	127
2425.64	127
2426.01	149
2426.39	133
2426.76	139
2427.14	121
2427.52	131
2427.89	133
2428.26	139
2428.64	99
2429.02	169
2429.39	93
2429.77	135
2430.14	135
2430.52	153
2430.89	157
2431.26	103
2431.64	129
2432.02	141
2432.39	157
2432.77	117
2433.14	191
2433.51	95
2433.89	183
2434.26	147
2434.64	135
2435.01	163
2435.39	101
2435.76	163
2436.14	131
2436.51	179
2436.89	99
2437.26	183
2437.63	117
2438.01	201
2438.38	133
2438.76	143
2439.13	171
2439.51	107
2439.88	177
2440.26	147
2440.63	173
2441	113
2441.38	151
2441.75	149
2442.13	189
2442.5	157
2442.87	161
2443.25	219
2443.62	105
2444	193
2444.37	179
2444.74	177
2445.12	179
2445.49	169
2445.87	171
2446.24	195
2446.61	143
2446.99	159
2447.36	181
2447.73	129
2448.11	195
2448.48	167
2448.86	163
2449.23	179
2449.6	153
2449.98	157
2450.35	175
2450.72	127
2451.1	193
2451.47	159
2451.84	157
2452.22	175
2452.59	183
2452.97	153
2453.34	187
2453.71	133
2454.08	179
2454.46	153
2454.83	133
2455.2	181
2455.58	127
2455.95	173
2456.32	129
2456.7	169
2457.07	125
2457.44	189
2457.82	141
2458.19	199
2458.56	187
2458.93	139
2459.31	211
2459.68	101
2460.05	183
2460.43	101
2460.8	183
2461.17	137
2461.54	165
2461.92	127
2462.29	165
2462.66	165
2463.03	121
2463.41	187
2463.78	89
2464.15	175
2464.52	127
2464.9	141
2465.27	153
2465.64	157
2466.01	127
2466.39	161
2466.76	153
2467.13	131
2467.5	173
2467.88	115
2468.25	173
2468.62	131
2468.99	161
2469.37	159
2469.74	133
2470.11	127
2470.48	139
2470.85	143
2471.22	157
2471.6	133
2471.97	131
2472.34	165
2472.71	145
2473.08	139
2473.46	153
2473.83	107
2474.2	125
2474.57	143
2474.94	121
2475.32	179
2475.69	111
2476.06	129
2476.43	129
2476.8	149
2477.17	127
2477.55	161
2477.92	103
2478.29	135
2478.66	157
2479.03	119
2479.4	191
2479.77	65
2480.15	177
2480.52	127
2480.89	161
2481.26	131
2481.63	141
2482	101
2482.37	103
2482.74	157
2483.12	103
2483.49	183
2483.86	71
2484.23	165
2484.6	141
2484.97	151
2485.34	129
2485.71	121
2486.08	115
2486.46	127
2486.83	157
2487.2	123
2487.57	173
2487.94	61
2488.31	171
2488.68	123
2489.05	143
2489.42	121
2489.79	127
2490.16	125
2490.53	155
2490.9	143
2491.27	121
2491.64	165
2492.01	105
2492.38	173
2492.76	113
2493.13	139
2493.5	131
2493.87	115
2494.24	145
2494.61	163
2494.98	123
2495.35	153
2495.72	137
2496.09	109
2496.46	143
2496.83	131
2497.2	109
2497.57	127
2497.94	131
2498.31	137
2498.68	147
2499.05	109
2499.42	185
2499.79	99
2500.16	139
2500.53	131
2500.9	145
2501.27	147
2501.64	117
2502.01	121
2502.38	133
2502.75	181
2503.12	93
2503.49	191
2503.86	79
2504.23	165
2504.6	123
2504.97	119
2505.34	141
2505.7	95
2506.07	137
2506.44	125
2506.81	145
2507.18	89
2507.55	185
2507.92	97
2508.29	171
2508.66	131
2509.03	139
2509.4	155
2509.77	89
2510.14	145
2510.5	129
2510.88	151
2511.24	89
2511.61	141
2511.98	111
2512.35	173
2512.72	119
2513.09	117
2513.46	157
2513.83	97
2514.2	139
2514.56	115
2514.93	145
2515.3	123
2515.67	131
2516.04	119
2516.41	149
2516.78	109
2517.15	135
2517.51	151
2517.88	119
2518.25	163
2518.62	133
2518.99	121
2519.36	135
2519.73	109
2520.09	121
2520.46	155
2520.83	101
2521.2	141
2521.57	147
2521.94	123
2522.3	105
2522.67	147
2523.04	101
2523.41	143
2523.78	71
2524.15	165
2524.51	155
2524.88	125
2525.25	145
2525.62	105
2525.98	143
2526.35	113
2526.72	161
2527.09	97
2527.46	155
2527.83	83
2528.19	151
2528.56	149
2528.93	101
2529.3	145
2529.66	93
2530.03	159
2530.4	99
2530.77	151
2531.13	111
2531.5	151
2531.87	117
2532.24	135
2532.61	131
2532.97	117
2533.34	163
2533.71	87
2534.07	147
2534.44	105
2534.81	147
2535.18	109
2535.54	139
2535.91	99
2536.28	153
2536.65	133
2537.01	121
2537.38	147
2537.75	73
2538.11	145
2538.48	131
2538.85	133
2539.22	151
2539.58	111
2539.95	107
2540.32	143
2540.68	141
2541.05	129
2541.42	121
2541.78	107
2542.15	133
2542.52	155
2542.89	127
2543.25	157
2543.62	89
2543.99	107
2544.35	129
2544.72	115
2545.08	151
2545.45	95
2545.82	137
2546.19	117
2546.55	151
2546.92	99
2547.28	169
2547.65	75
2548.02	131
2548.38	141
2548.75	107
2549.12	167
2549.48	79
2549.85	149
2550.21	109
2550.58	161
2550.95	107
2551.31	139
2551.68	95
2552.05	153
2552.41	167
2552.78	111
2553.14	177
2553.51	69
2553.88	153
2554.24	107
2554.61	145
2554.97	101
2555.34	125
2555.71	111
2556.07	153
2556.44	139
2556.8	127
2557.17	149
2557.53	67
2557.9	151
2558.27	125
2558.63	135
2559	123
2559.36	127
2559.73	123
2560.09	135
2560.46	125
2560.82	143
2561.19	135
2561.55	103
2561.92	139
2562.29	139
2562.65	131
2563.02	131
2563.38	101
2563.75	159
2564.11	139
2564.48	107
2564.84	133
2565.21	107
2565.57	138.883
2565.94	117.23
2566.3	161.762
2566.67	104.826
2567.03	132.189
2567.4	105.909
2567.76	152.416
2568.13	134.25
2568.49	80.5848
2568.86	180.766
2569.22	104.193
2569.59	133.501
2569.95	110.92
2570.32	136.149
2570.68	125.838
2571.05	124.042
2571.41	135.682
2571.78	123.339
2572.14	147.588
2572.51	107.156
2572.87	165.712
2573.23	103.84
2573.6	151.345
2573.96	125.495
2574.33	136.152
2574.69	135.683
2575.06	130.116
2575.42	125.782
2575.79	138.749
2576.15	152.655
2576.51	108.486
2576.88	146.112
2577.24	98.5418
2577.61	149.902
2577.97	112.767
2578.34	129.52
2578.7	126.498
2579.06	119.98
2579.43	124.148
2579.79	112.045
2580.16	135.903
2580.52	126.155
2580.88	143.33
2581.25	111.289
2581.61	152.363
2581.98	119.384
2582.34	135.707
2582.7	145.666
2583.07	123.608
2583.43	142.15
2583.8	124.471
2584.16	129.829
2584.52	140.481
2584.89	147.631
2585.25	145.435
2585.61	122.833
2585.98	134.039
2586.34	140.597
2586.7	153.222
2587.07	117.93
2587.43	129.481
2587.8	129.609
2588.16	136.583
2588.52	154.271
2588.88	110.945
2589.25	147.247
2589.61	115.52
2589.97	147.965
2590.34	132.913
2590.7	139.275
2591.06	129.115
2591.43	133.787
2591.79	126.439
2592.15	146.437
2592.52	143.262
2592.88	120.955
2593.24	163.61
2593.61	107.841
2593.97	157.007
2594.33	134.554
2594.7	153.714
2595.06	132.284
2595.42	127.272
2595.78	128.916
2596.15	158.015
2596.51	150.793
2596.87	124.323
2597.24	163.783
2597.6	100.863
2597.96	136.053
2598.32	138.292
2598.69	142.02
2599.05	126.968
2599.41	118.034
2599.78	156.561
2600.14	166.979
2600.5	159.651
2600.86	148.997
2600.95	147
2601.31	145
2601.68	127
2602.05	163
2602.42	151
2602.78	135
2603.15	173
2603.52	137
2603.89	177
2604.25	165
2604.62	121
2604.99	195
2605.35	145
2605.72	171
2606.09	145
2606.46	159
2606.82	147
2607.19	149
2607.56	115
2607.92	155
2608.29	171
2608.66	105
2609.03	201
2609.39	119
2609.76	191
2610.13	171
2610.49	153
2610.86	135
2611.23	157
2611.59	165
2611.96	159
2612.33	185
2612.69	117
2613.06	209
2613.43	105
2613.79	193
2614.16	127
2614.53	195
2614.89	165
2615.26	165
2615.62	163
2615.99	149
2616.36	183
2616.72	123
2617.09	229
2617.46	137
2617.82	201
2618.19	145
2618.56	181
2618.92	171
2619.29	161
2619.65	163
2620.02	163
2620.39	189
2620.75	135
2621.12	205
2621.48	145
2621.85	209
2622.22	175
2622.58	173
2622.95	193
2623.31	153
2623.68	185
2624.04	191
2624.41	193
2624.78	201
2625.14	191
2625.51	203
2625.87	225
2626.24	169
2626.6	195
2626.97	197
2627.34	187
2627.7	207
2628.07	237
2628.43	189
2628.8	219
2629.16	189
2629.53	187
2629.9	205
2630.26	203
2630.63	231
2630.99	191
2631.36	207
2631.72	211
2632.09	251
2632.45	181
2632.82	251
2633.18	189
2633.55	263
2633.91	231
2634.28	227
2634.64	237
2635.01	239
2635.37	239
2635.74	223
2636.1	277
2636.47	219
2636.83	295
2637.2	171
2637.56	301
2637.93	271
2638.29	295
2638.66	269
2639.02	237
2639.39	283
2639.75	261
2640.12	301
2640.48	221
2640.84	321
2641.21	227
2641.57	289
2641.94	299
2642.3	297
2642.67	303
2643.03	263
2643.4	295
2643.76	301
2644.13	313
2644.49	291
2644.85	309
2645.22	273
2645.58	337
2645.95	331
2646.31	329
2646.68	363
2647.04	329
2647.4	357
2647.77	375
2648.13	335
2648.5	373
2648.86	363
2649.22	351
2649.59	393
2649.95	377
2650.32	375
2650.68	365
2651.04	389
2651.41	417
2651.77	413
2652.14	369
2652.5	485
2652.86	375
2653.23	401
2653.59	449
2653.95	469
2654.32	441
2654.68	471
2655.05	461
2655.41	515
2655.77	489
2656.14	457
2656.5	543
2656.86	445
2657.23	535
2657.59	491
2657.95	521
2658.32	517
2658.68	499
2659.04	577
2659.41	563
2659.77	573
2660.13	537
2660.5	607
2660.86	521
2661.22	591
2661.59	585
2661.95	571
2662.31	639
2662.68	619
2663.04	653
2663.4	637
2663.76	649
2664.13	597
2664.49	641
2664.85	645
2665.22	705
2665.58	653
2665.94	663
2666.3	719
2666.67	619
2667.03	717
2667.39	685
2667.76	703
2668.12	709
2668.48	713
2668.84	659
2669.21	737
2669.57	671
2669.93	729
2670.29	761
2670.66	701
2671.02	749
2671.38	727
2671.74	735
2672.11	773
2672.47	743
2672.83	773
2673.19	723
2673.56	717
2673.92	789
2674.28	737
2674.64	697
2675	707
2675.37	783
2675.73	695
2676.09	771
2676.45	709
2676.81	731
2677.18	711
2677.54	715
2677.9	761
2678.26	709
2678.62	717
2678.99	711
2679.35	743
2679.71	675
2680.07	733
2680.43	635
2680.8	719
2681.16	669
2681.52	675
2681.88	695
2682.24	577
2682.6	661
2682.97	565
2683.33	709
2683.69	609
2684.05	641
2684.41	539
2684.77	631
2685.13	547
2685.5	561
2685.86	625
2686.22	529
2686.58	599
2686.94	527
2687.3	573
2687.66	557
2688.03	573
2688.39	475
2688.75	507
2689.11	519
2689.47	497
2689.83	531
2690.19	471
2690.55	513
2690.91	451
2691.28	495
2691.64	465
2692	457
2692.36	395
2692.72	429
2693.08	437
2693.44	435
2693.8	421
2694.16	369
2694.52	387
2694.88	399
2695.24	415
2695.61	403
2695.97	327
2696.33	357
2696.69	381
2697.05	351
2697.41	345
2697.77	333
2698.13	313
2698.49	339
2698.85	345
2699.21	317
2699.57	349
2699.93	289
2700.29	307
2700.65	297
2701.01	291
2701.37	357
2701.73	259
2702.09	323
2702.45	299
2702.81	299
2703.18	255
2703.53	339
2703.89	253
2704.25	299
2704.62	287
2704.98	243
2705.33	291
2705.69	209
2706.06	291
2706.42	243
2706.78	267
2707.13	191
2707.49	259
2707.85	217
2708.22	267
2708.57	273
2708.93	235
2709.29	269
2709.65	175
2710.01	253
2710.37	223
2710.73	243
2711.09	201
2711.45	215
2711.81	195
2712.17	233
2712.53	223
2712.89	203
2713.25	235
2713.61	181
2713.97	239
2714.33	193
2714.69	199
2715.05	183
2715.41	181
2715.76	177
2716.12	229
2716.48	211
2716.84	201
2717.2	201
2717.56	179
2717.92	215
2718.28	207
2718.64	163
2719	187
2719.35	167
2719.71	211
2720.07	205
2720.43	149
2720.79	203
2721.15	163
2721.51	195
2721.87	157
2722.23	191
2722.59	121
2722.94	199
2723.3	143
2723.66	201
2724.02	201
2724.38	129
2724.74	215
2725.1	117
2725.46	187
2725.81	159
2726.17	195
2726.53	135
2726.89	195
2727.25	151
2727.61	195
2727.96	169
2728.32	137
2728.68	211
2729.04	123
2729.4	187
2729.75	143
2730.11	195
2730.47	137
2730.83	195
2731.19	149
2731.55	169
2731.91	165
2732.26	135
2732.62	205
2732.98	115
2733.34	177
2733.69	127
2734.05	177
2734.41	159
2734.77	159
2735.13	113
2735.48	163
2735.84	147
2736.2	163
2736.56	191
2736.91	109
2737.27	187
2737.63	121
2737.99	159
2738.35	159
2738.7	123
2739.06	131
2739.42	165
2739.78	137
2740.13	147
2740.49	155
2740.85	131
2741.21	145
2741.56	139
2741.92	127
2742.28	175
2742.64	139
2742.99	147
2743.35	145
2743.71	149
2744.06	171
2744.42	111
2744.78	143
2745.14	153
2745.49	171
2745.85	123
2746.21	161
2746.57	121
2746.92	121
2747.28	157
2747.64	121
2747.99	187
2748.35	87
2748.71	173
2749.06	141
2749.42	167
2749.78	143
2750.13	169
2750.49	125
2750.85	151
2751.2	151
2751.56	123
2751.92	173
2752.27	89
2752.63	177
2752.99	127
2753.34	153
2753.7	135
2754.06	135
2754.41	131
2754.77	139
2755.13	151
2755.48	117
2755.84	167
2756.2	79
2756.55	177
2756.91	123
2757.26	163
2757.62	147
2757.98	127
2758.33	155
2758.69	147
2759.04	167
2759.4	131
2759.76	169
2760.11	71
2760.47	165
2760.83	135
2761.18	131
2761.54	145
2761.89	125
2762.25	143
2762.61	137
2762.96	133
2763.32	149
2763.67	123
2764.03	113
2764.38	151
2764.74	147
2765.1	127
2765.45	129
2765.81	113
2766.16	153
2766.52	161
2766.88	101
2767.23	151
2767.59	97
2767.94	129
2768.3	145
2768.65	129
2769.01	155
2769.36	121
2769.72	119
2770.07	129
2770.43	143
2770.78	89
2771.14	181
2771.49	75
2771.85	153
2772.21	135
2772.56	139
2772.92	125
2773.27	95
2773.63	137
2773.98	157
2774.34	165
2774.69	95
2775.05	167
2775.4	97
2775.76	163
2776.11	111
2776.47	137
2776.82	141
2777.18	95
2777.53	131
2777.89	123
2778.24	173
2778.59	85
2778.95	157
2779.3	71
2779.66	159
2780.01	107
2780.37	147
2780.72	153
2781.08	109
2781.43	151
2781.79	123
2782.14	163
2782.49	107
2782.85	143
2783.2	107
2783.56	159
2783.91	119
2784.27	139
2784.62	163
2784.98	103
2785.33	149
2785.68	135
2786.04	139
2786.39	151
2786.75	117
2787.1	131
2787.46	143
2787.81	101
2788.16	139
2788.52	143
2788.87	117
2789.22	149
2789.58	139
2789.93	115
2790.29	169
2790.64	97
2790.99	139
2791.35	139
2791.7	109
2792.06	133
2792.41	137
2792.76	131
2793.12	111
2793.47	145
2793.82	119
2794.18	177
2794.53	81
2794.88	159
2795.24	97
2795.59	127
2795.95	139
2796.3	133
2796.65	119
2797.01	119
2797.36	141
2797.71	103
2798.07	181
2798.42	63
2798.77	159
2799.13	111
2799.48	113
2799.83	157
2800.19	89
2800.54	155
2800.89	113
2801.24	147
2801.6	107
2801.95	155
2802.3	77
2802.66	137
2803.01	109
2803.36	113
2803.72	157
2804.07	113
2804.42	161
2804.77	103
2805.13	137
2805.48	127
2805.83	133
2806.19	93
2806.54	133
2806.89	115
2807.24	111
2807.6	163
2807.95	87
2808.3	131
2808.65	141
2809.01	123
2809.36	147
2809.71	91
2810.06	85
2810.42	151
2810.77	123
2811.12	139
2811.47	117
2811.83	133
2812.18	141
2812.53	147
2812.88	113
2813.24	173
2813.59	99
2813.94	129
2814.29	141
2814.64	139
2815	137
2815.35	101
2815.7	151
2816.05	125
2816.4	153
2816.76	89
2817.11	173
2817.46	69
2817.81	139
2818.16	111
2818.52	133
2818.87	147
2819.22	69
2819.57	129
2819.92	125
2820.28	151
2820.63	73
2820.98	147
2821.33	77
2821.68	137
2822.03	143
2822.39	115
2822.74	191
2823.09	73
2823.44	159
2823.79	111
2824.14	151
2824.49	107
2824.85	141
2825.2	109
2825.55	143
2825.9	151
2826.25	109
2826.6	155
2826.95	83
2827.31	157
2827.66	127
2828.01	127
2828.36	111
2828.71	109
2829.06	113
2829.41	149
2829.76	103
2830.11	103
2830.46	117
2830.82	99
2831.17	145
2831.52	115
2831.87	133
2832.22	127
2832.57	109
2832.92	113
2833.27	129
2833.62	101
2833.97	135
2834.32	125
2834.68	111
2835.03	133
2835.38	129
2835.73	107
2836.08	123
2836.43	105
2836.78	137
2837.13	121
2837.48	101
2837.83	155
2838.18	103
2838.53	141
2838.88	107
2839.23	139
2839.58	93
2839.93	143
2840.28	77
2840.63	143
2840.98	147
2841.33	81
2841.68	159
2842.03	79
2842.38	153
2842.73	83
2843.08	143
2843.43	113
2843.78	153
2844.13	125
2844.48	131
2844.83	163
2845.18	87
2845.53	193
2845.88	81
2846.23	163
2846.58	107
2846.93	139
2847.28	117
2847.63	121
2847.98	123
2848.33	129
2848.68	129
2849.03	105
2849.38	163
2849.73	63
2850.08	151
2850.43	81
2850.78	121
2851.13	125
2851.48	99
2851.83	113
2852.18	137
2852.53	123
2852.88	123
2853.23	147
2853.57	113
2853.92	157
2854.27	107
2854.62	129
2854.97	161
2855.32	105
2855.67	115
2856.02	131
2856.37	121
2856.72	139
2857.07	105
2857.42	133
2857.76	129
2858.11	127
2858.46	107
2858.81	147
2859.16	111
2859.51	109
2859.86	141
2860.21	119
2860.56	169
2860.91	61
2861.25	167
2861.6	113
2861.95	135
2862.3	125
2862.65	133
2863	115
2863.35	131
2863.69	145
2864.04	89
2864.39	177
2864.74	55
2865.09	147
2865.44	113
2865.78	133
2866.13	129
2866.48	113
2866.83	115
2867.18	117
2867.53	149
2867.88	83
2868.22	153
2868.57	65
2868.92	153
2869.27	105
2869.62	125
2869.96	113
2870.31	93
2870.66	109
2871.01	111
2871.36	137
2871.7	115
2872.05	145
2872.4	65
2872.75	143
2873.1	125
2873.44	121
2873.79	145
2874.14	109
2874.49	139
2874.84	135
2875.18	149
2875.53	141
2875.88	123
2876.23	103
2876.57	157
2876.92	133
2877.27	125
2877.62	127
2877.97	85
2878.31	133
2878.66	115
2879.01	111
2879.36	145
2879.7	79
2880.05	125
2880.4	127
2880.74	121
2881.09	117
2881.44	115
2881.79	109
2882.13	125
2882.48	149
2882.83	85
2883.18	169
2883.52	59
2883.87	145
2884.22	117
2884.56	149
2884.91	141
2885.26	93
2885.61	125
2885.95	119
2886.3	137
2886.65	89
2886.99	155
2887.34	79
2887.69	163
2888.03	105
2888.38	119
2888.73	133
2889.07	71
2889.42	123
2889.77	119
2890.11	145
2890.46	79
2890.81	155
2891.15	71
2891.5	155
2891.85	95
2892.19	129
2892.54	149
2892.89	87
2893.23	149
2893.58	119
2893.93	131
2894.27	113
2894.62	137
2894.96	97
2895.31	155
2895.66	109
2896	121
2896.35	154.7
2896.7	92.8787
2897.04	155.855
2897.39	130.017
2897.73	122.068
2898.08	114.097
2898.43	97.8872
2898.77	100.293
2899.12	134.38
2899.46	110.506
2899.81	118.223
2900.16	129.789
2900.5	97.9714
2900.85	119.404
2901.19	130.73
2901.54	94.5193
2901.88	142.738
2902.23	103.311
2902.58	124.614
2902.92	117.055
2903.27	114.828
2903.61	133.022
2903.96	129.359
2904.31	130.223
2904.65	128.019
2905	144.862
2905.34	125.647
2905.69	159.353
2906.03	102.238
2906.38	113.146
2906.72	125.521
2907.07	93.6013
2907.42	145.637
2907.76	100.976
2908.11	125.751
2908.45	119.309
2908.8	129.563
2909.14	116.401
2909.49	130.07
2909.83	112.276
2910.18	117.21
2910.52	137.025
2910.87	97.4639
2911.21	147.843
2911.56	106.069
2911.9	118.715
2912.25	123.815
2912.59	128.454
2912.94	114.318
2913.28	134.543
2913.63	108.025
2913.97	132.091
2914.32	122.6
2914.66	102.383
2915.01	142.199
2915.35	128.818
2915.7	130.096
2916.04	135.5
2916.39	120.225
2916.73	125.477
2917.08	119.929
2917.42	105.353
2917.77	133.862
2918.11	124.415
2918.46	104.118
2918.8	127.179
2919.15	116.711
2919.49	114.022
2919.83	121.693
2920.18	116.522
2920.52	129.801
2920.87	119.974
2921.21	115.567
2921.56	132.174
2921.9	121.882
2922.24	112.665
2922.59	123.431
2922.93	131.202
2923.28	115.583
2923.62	110.684
2923.97	126.576
2924.31	133.246
2924.65	132.829
2925	106.015
2925.34	123.883
2925.69	134.017
2926.03	120.344
2926.38	124.422
2926.72	125.799
2927.06	117.76
2927.41	111.513
2927.75	122.63
2928.09	126.173
2928.44	120.135
2928.78	116.624
2929.13	128.816
2929.47	132.729
2929.81	106.316
2930.16	119.757
2930.5	139.555
2930.79	111
2931.14	139
2931.49	105
2931.84	117
2932.19	119
2932.54	107
2932.88	131
2933.23	131
2933.58	111
2933.93	111
2934.28	143
2934.63	97
2934.97	141
2935.32	87
2935.67	129
2936.02	131
2936.37	107
2936.71	107
2937.06	131
2937.41	113
2937.76	101
2938.11	129
2938.46	81
2938.8	179
2939.15	75
2939.5	161
2939.85	111
2940.19	109
2940.54	135
2940.89	99
2941.24	105
2941.59	105
2941.93	135
2942.28	103
2942.63	169
2942.98	57
2943.32	147
2943.67	113
2944.02	131
2944.37	129
2944.72	89
2945.06	133
2945.41	107
2945.76	145
2946.11	103
2946.45	137
2946.8	75
2947.15	157
2947.49	113
2947.84	117
2948.19	141
2948.54	105
2948.88	141
2949.23	113
2949.58	117
2949.93	121
2950.27	121
2950.62	77
2950.97	151
2951.31	123
2951.66	135
2952.01	125
2952.35	105
2952.7	129
2953.05	129
2953.4	137
2953.74	153
2954.09	103
2954.44	97
2954.78	143
2955.13	105
2955.48	109
2955.82	111
2956.17	101
2956.52	127
2956.86	155
2957.21	117
2957.56	159
2957.9	85
2958.25	123
2958.6	133
2958.94	129
2959.29	107
2959.64	121
2959.98	101
2960.33	121
2960.68	133
2961.02	83
2961.37	177
2961.72	59
2962.06	155
2962.41	119
2962.76	133
2963.1	123
2963.45	91
2963.79	123
2964.14	111
2964.49	145
2964.83	77
2965.18	157
2965.52	71
2965.87	149
2966.22	107
2966.56	133
2966.91	125
2967.25	75
2967.6	137
2967.95	125
2968.29	151
2968.64	69
2968.98	153
2969.33	89
2969.68	151
2970.02	109
2970.37	117
2970.71	147
2971.06	85
2971.4	131
2971.75	125
2972.1	145
2972.44	89
2972.79	143
2973.13	95
2973.48	161
2973.82	93
2974.17	105
2974.51	155
2974.86	95
2975.21	129
2975.55	117
2975.9	123
2976.24	115
2976.59	123
2976.93	99
2977.28	149
2977.62	95
2977.97	131
2978.31	165
2978.66	97
2979	129
2979.35	109
2979.69	125
2980.04	127
2980.38	95
2980.73	127
2981.07	121
2981.42	103
2981.76	121
2982.11	115
2982.45	111
2982.8	125
2983.14	163
2983.49	87
2983.83	175
2984.18	91
2984.52	143
2984.87	137
2985.21	109
2985.56	141
2985.9	119
2986.25	123
2986.59	111
2986.94	135
2987.28	89
2987.62	149
2987.97	79
2988.31	143
2988.66	135
2989	117
2989.35	123
2989.69	83
2990.03	127
2990.38	103
2990.72	139
2991.07	105
2991.41	159
2991.76	73
2992.1	157
2992.44	123
2992.79	101
2993.13	151
2993.48	77
2993.82	149
2994.17	89
2994.51	141
2994.85	89
2995.2	155
2995.54	77
2995.89	141
2996.23	115
2996.57	107
2996.92	169
2997.26	95
2997.6	179
2997.95	97
2998.29	137
2998.64	113
2998.98	121
2999.32	99
2999.67	151
