#Acq. time (s)=	30
#Accumulations=	1
#Range (cm-¹)=	1050...3000 (30 s) 
#Windows=	6
#Auto scanning=	Off
#Autofocus=	Off
#AutoExposure=	Off
#Spike filter=	Off
#Delay time (s)=	0
#Binning=	1
#Readout mode=	Signal
#DeNoise=	Off
#ICS correction=	Off
#Dark correction=	Off
#Inst. Process=	Off
#Detector Gain=	High Sensitivity
#Detector ADC=	45 kHz       
#Detector temperature (°C)=	-60.1
#Instrument=	LabRAM
#Detector=	Syncerity
#Objective=	x50LWD
#Grating=	1800
#Filter=	25%
#Laser (nm)=	532
#Hole=	100
#E-Cal_Neon=	0
#StageXY=	Marzhauser
#StageZ=	Marzhauser
#X (µm)=	0
#Y (µm)=	0
#Z (µm)=	-1678.85
#Spectral res.(cm-¹)=	1.9
#Full time(mm:ss)=	3:09
#AC=	Not calibrated
#Project=	
#Sample=	
#Site=	
#Title=	Spot 2 400K
#Remark=	
#Date=	19.02.2026 14:52
#Acquired=	19.02.2026 14:52:42
#Edit:Spike=	19.02.2026 14:59:53
#Edit:Spike=	19.02.2026 15:00:06
#Edit:Spike=	19.02.2026 15:00:09
#Edit:Spike=	19.02.2026 15:00:10
#AxisType[0]=Intens
#AxisUnit[0]=Cnt
#AxisType[1]=Spectr
#AxisUnit[1]=1/cm
1050.13	139
1050.59	111
1051.05	155
1051.51	113
1051.97	161
1052.44	139
1052.9	97
1053.36	175
1053.82	83
1054.28	173
1054.74	115
1055.2	147
1055.67	135
1056.13	119
1056.59	121
1057.05	147
1057.51	135
1057.97	113
1058.43	131
1058.89	89
1059.36	179
1059.82	105
1060.28	125
1060.74	155
1061.2	115
1061.66	127
1062.12	141
1062.58	163
1063.04	149
1063.5	129
1063.96	127
1064.43	159
1064.89	121
1065.35	125
1065.81	131
1066.27	107
1066.73	131
1067.19	155
1067.65	105
1068.11	177
1068.57	97
1069.03	151
1069.49	125
1069.95	127
1070.41	153
1070.87	99
1071.33	153
1071.79	131
1072.25	157
1072.71	97
1073.17	149
1073.63	89
1074.09	171
1074.55	133
1075.01	119
1075.47	191
1075.93	95
1076.39	183
1076.85	97
1077.31	159
1077.77	139
1078.23	127
1078.69	119
1079.15	141
1079.61	163
1080.07	117
1080.53	155
1080.99	83
1081.45	143
1081.91	123
1082.37	137
1082.83	163
1083.29	111
1083.75	135
1084.21	147
1084.66	125
1085.12	165
1085.58	123
1086.04	121
1086.5	145
1086.96	119
1087.42	137
1087.88	145
1088.34	121
1088.8	109
1089.25	151
1089.71	111
1090.17	157
1090.63	85
1091.09	169
1091.55	147.4
1092.01	158
1092.47	168
1092.92	153
1093.38	135
1093.84	123
1094.3	167
1094.76	105
1095.22	199
1095.68	81
1096.13	163
1096.59	127
1097.05	117
1097.51	169
1097.97	115
1098.43	151
1098.88	121
1099.34	167
1099.8	109
1100.26	147
1100.72	85
1101.17	169
1101.63	131
1102.09	129
1102.55	159
1103.01	125
1103.46	159
1103.92	123
1104.38	137
1104.84	141
1105.29	115
1105.75	113
1106.21	139
1106.67	129
1107.12	125
1107.58	143
1108.04	131
1108.5	139
1108.95	133
1109.41	121
1109.87	173
1110.33	95
1110.78	153
1111.24	137
1111.7	125
1112.16	173
1112.61	85
1113.07	169
1113.53	133
1113.98	157
1114.44	105
1114.9	147
1115.35	99
1115.81	129
1116.27	153
1116.72	107
1117.18	197
1117.64	73
1118.1	167
1118.55	109
1119.01	159
1119.47	133
1119.92	129
1120.38	115
1120.84	131
1121.29	139
1121.75	113
1122.2	161
1122.66	83
1123.12	171
1123.57	137
1124.03	145
1124.49	149
1124.94	105
1125.4	147
1125.86	153
1126.31	137
1126.77	167
1127.22	107
1127.68	125
1128.14	149
1128.59	141
1129.05	125
1129.5	127
1129.96	111
1130.41	141
1130.87	161
1131.33	99
1131.78	175
1132.24	91
1132.69	155
1133.15	137
1133.61	149
1134.06	135
1134.52	109
1134.97	149
1135.43	127
1135.88	161
1136.34	87
1136.79	175
1137.25	85
1137.7	187
1138.16	135
1138.61	127
1139.07	149
1139.52	97
1139.98	151
1140.43	129
1140.89	179
1141.34	109
1141.8	143
1142.25	103
1142.71	165
1143.16	107
1143.62	123
1144.07	165
1144.53	95
1144.98	155
1145.44	131
1145.89	149
1146.35	139
1146.8	127
1147.26	135
1147.71	157
1148.16	135
1148.62	149
1149.07	135
1149.53	131
1149.98	141
1150.44	149
1150.89	105
1151.35	159
1151.8	117
1152.25	155
1152.71	131
1153.16	103
1153.62	181
1154.07	107
1154.52	157
1154.98	141
1155.43	161
1155.89	121
1156.34	147
1156.79	131
1157.25	147
1157.7	151
1158.16	71
1158.61	183
1159.06	77
1159.52	175
1159.97	99
1160.42	141
1160.88	141
1161.33	113
1161.78	167
1162.24	123
1162.69	147
1163.14	113
1163.6	181
1164.05	113
1164.5	159
1164.96	131
1165.41	133
1165.86	169
1166.32	115
1166.77	131
1167.22	153
1167.68	125
1168.13	145
1168.58	129
1169.04	129
1169.49	169
1169.94	117
1170.39	145
1170.85	143
1171.3	111
1171.75	139
1172.2	137
1172.66	87
1173.11	155
1173.56	93
1174.01	157
1174.47	145
1174.92	87
1175.37	151
1175.82	111
1176.28	141
1176.73	103
1177.18	139
1177.63	97
1178.09	147
1178.54	123
1178.99	153
1179.44	139
1179.89	117
1180.35	191
1180.8	95
1181.25	167
1181.7	107
1182.15	165
1182.61	117
1183.06	141
1183.51	109
1183.96	153
1184.41	133
1184.87	97
1185.32	175
1185.77	77
1186.22	165
1186.67	111
1187.12	131
1187.58	145
1188.03	103
1188.48	133
1188.93	145
1189.38	165
1189.83	113
1190.28	149
1190.73	141
1191.19	149
1191.64	121
1192.09	119
1192.54	145
1192.99	113
1193.44	133
1193.89	151
1194.34	115
1194.8	169
1195.25	91
1195.7	143
1196.15	143
1196.6	115
1197.05	145
1197.5	119
1197.95	121
1198.4	135
1198.85	171
1199.3	117
1199.75	173
1200.2	65
1200.66	179
1201.11	153
1201.56	113
1202.01	147
1202.46	101
1202.91	155
1203.36	97
1203.81	165
1204.26	101
1204.71	163
1205.16	87
1205.61	155
1206.06	125
1206.51	101
1206.96	159
1207.41	107
1207.86	157
1208.31	85
1208.76	147
1209.21	135
1209.66	131
1210.11	95
1210.56	140.667
1211.01	173.667
1211.46	168.667
1211.91	179.467
1212.36	111
1212.81	149
1213.26	129
1213.71	127
1214.16	171
1214.61	109
1215.05	121
1215.51	157
1215.95	137
1216.4	171
1216.85	131
1217.3	143
1217.75	103
1218.2	155
1218.65	101
1219.1	165
1219.55	109
1220	137
1220.45	159
1220.9	123
1221.34	173
1221.79	85
1222.24	163
1222.69	123
1223.14	155
1223.59	137
1224.04	151
1224.49	115
1224.94	139
1225.38	161
1225.83	113
1226.28	167
1226.73	57
1227.18	163
1227.63	113
1228.07	135
1228.52	137
1228.97	101
1229.42	141
1229.87	139
1230.32	147
1230.76	141
1231.21	169
1231.66	91
1232.11	173
1232.56	153
1233.01	133
1233.45	141
1233.9	119
1234.35	139
1234.8	149
1235.25	127
1235.69	183
1236.14	121
1236.59	139
1237.04	149
1237.49	117
1237.93	139
1238.38	129
1238.83	143
1239.28	151
1239.72	161
1240.17	89
1240.62	159
1241.07	73
1241.51	139
1241.96	143
1242.41	129
1242.86	153
1243.3	93
1243.75	155
1244.2	147
1244.65	149
1245.09	91
1245.54	169
1245.99	99
1246.44	169
1246.88	145
1247.33	143
1247.78	173
1248.22	97
1248.67	149
1249.12	119
1249.56	153
1250.01	99
1250.46	159
1250.9	121
1251.35	139
1251.8	133
1252.24	135
1252.69	143
1253.14	97
1253.58	171
1254.03	127
1254.48	131
1254.92	135
1255.37	109
1255.82	137
1256.26	163
1256.71	113
1257.15	149
1257.6	115
1258.05	113
1258.49	151
1258.94	153
1259.39	127
1259.83	153
1260.28	133
1260.72	165
1261.17	167
1261.62	105
1262.06	189
1262.51	89
1262.95	173
1263.4	131
1263.85	149
1264.29	123
1264.74	119
1265.18	133
1265.63	115
1266.07	175
1266.52	85
1266.97	199
1267.41	91
1267.86	169
1268.3	139
1268.75	141
1269.19	177
1269.64	101
1270.08	155
1270.53	139
1270.97	177
1271.42	115
1271.86	145
1272.31	113
1272.76	157
1273.2	135
1273.64	129
1274.09	149
1274.53	105
1274.98	157
1275.42	137
1275.87	135
1276.31	139
1276.76	115
1277.2	139
1277.65	165
1278.09	113
1278.54	131
1278.98	127
1279.43	125
1279.87	133
1280.32	157
1280.76	129
1281.21	149
1281.65	123
1282.09	149
1282.54	153
1282.98	75
1283.43	153
1283.87	115
1284.32	133
1284.76	119
1285.21	153
1285.65	127
1286.09	137
1286.54	123
1286.98	147
1287.42	171
1287.87	101
1288.31	185
1288.76	91
1289.2	161
1289.64	115
1290.09	161
1290.53	135
1290.98	133
1291.42	147
1291.86	141
1292.31	149
1292.75	95
1293.19	181
1293.64	91
1294.08	181
1294.53	119
1294.97	139
1295.41	159
1295.85	115
1296.3	161
1296.74	151
1297.19	153
1297.63	139
1298.07	141
1298.51	131
1298.96	171
1299.4	123
1299.84	131
1300.29	147
1300.73	113
1301.17	145
1301.62	155
1302.06	109
1302.5	199
1302.94	97
1303.39	159
1303.83	161
1304.27	111
1304.72	149
1305.16	107
1305.6	135
1306.04	119
1306.49	179
1306.93	95
1307.37	185
1307.81	117
1308.26	171
1308.7	155
1309.14	145
1309.58	193
1310.03	93
1310.47	163
1310.91	99
1311.35	189
1311.8	135
1312.24	151
1312.68	103
1313.12	151
1313.56	151
1314	119
1314.45	177
1314.89	109
1315.33	157
1315.77	115
1316.22	159
1316.66	155
1317.1	135
1317.54	121
1317.98	171
1318.43	133
1318.87	149
1319.31	165
1319.75	133
1320.19	151
1320.63	139
1321.07	157
1321.51	163
1321.96	125
1322.4	143
1322.84	153
1323.28	137
1323.72	163
1324.16	127
1324.6	181
1325.05	141
1325.49	167
1325.93	155
1326.37	185
1326.81	173
1327.25	129
1327.69	171
1328.13	127
1328.57	205
1329.02	99
1329.45	183
1329.9	137
1330.34	183
1330.78	151
1331.22	145
1331.66	171
1332.1	137
1332.54	197
1332.98	147
1333.42	195
1333.86	109
1334.3	193
1334.74	189
1335.18	183
1335.62	223
1336.07	159
1336.5	201
1336.95	159
1337.39	187
1337.83	199
1338.27	163
1338.71	149
1339.15	197
1339.59	183
1340.03	179
1340.47	185
1340.91	151
1341.35	159
1341.79	185
1342.23	161
1342.67	221
1343.11	155
1343.55	173
1343.99	191
1344.43	183
1344.86	195
1345.31	139
1345.74	207
1346.18	169
1346.62	199
1347.06	163
1347.5	229
1347.94	147
1348.38	171
1348.82	181
1349.26	169
1349.7	219
1350.14	113
1350.58	201
1351.02	169
1351.46	207
1351.9	161
1352.33	189
1352.77	131
1353.21	165
1353.65	179
1354.09	139
1354.53	203
1354.97	101
1355.41	207
1355.85	155
1356.29	171
1356.72	153
1357.16	137
1357.6	145
1358.04	157
1358.48	173
1358.92	149
1359.36	183
1359.79	117
1360.23	185
1360.67	157
1361.11	153
1361.55	157
1361.99	125
1362.43	165
1362.87	171
1363.3	149
1363.74	157
1364.18	147
1364.62	133
1365.06	165
1365.49	163
1365.93	139
1366.37	117
1366.81	145
1367.25	141
1367.68	167
1368.12	123
1368.56	181
1369	113
1369.44	143
1369.87	133
1370.31	137
1370.75	169
1371.19	97
1371.62	163
1372.06	163
1372.5	181
1372.94	111
1373.37	181
1373.81	101
1374.25	141
1374.69	151
1375.12	117
1375.56	179
1376	75
1376.44	193
1376.87	129
1377.31	171
1377.75	153
1378.19	149
1378.62	133
1379.06	145
1379.5	139
1379.93	111
1380.37	163
1380.81	95
1381.25	167
1381.68	151
1382.12	129
1382.56	153
1382.99	117
1383.43	143
1383.87	169
1384.3	161
1384.74	165
1385.18	123
1385.61	117
1386.05	143
1386.49	169
1386.92	141
1387.36	131
1387.8	131
1388.23	141
1388.67	151
1389.1	97
1389.54	173
1389.98	111
1390.41	143
1390.85	131
1391.29	145
1391.72	157
1392.16	111
1392.59	141
1393.03	145
1393.47	147
1393.9	107
1394.34	171
1394.77	83
1395.21	151
1395.65	153
1396.08	147
1396.52	147
1396.95	113
1397.39	177
1397.82	147
1398.26	167
1398.7	115
1399.13	167
1399.57	87
1400	161
1400.44	133
1400.87	155
1401.31	181
1401.74	99
1402.18	179
1402.62	137
1403.05	129
1403.49	125
1403.92	137
1404.36	139
1404.79	149
1405.23	113
1405.66	129
1406.1	137
1406.53	105
1406.97	129
1407.4	139
1407.84	107
1408.27	161
1408.71	109
1409.14	151
1409.58	135
1410.01	111
1410.45	171
1410.88	117
1411.31	151
1411.75	111
1412.18	179
1412.62	109
1413.05	165
1413.49	129
1413.92	145
1414.36	191
1414.79	93
1415.23	195
1415.66	77
1416.1	163
1416.53	115
1416.96	149
1417.4	137
1417.83	115
1418.27	145
1418.7	141
1419.13	135
1419.57	85
1420	153
1420.44	109
1420.87	169
1421.3	103
1421.74	137
1422.17	141
1422.61	95
1423.04	151
1423.47	143
1423.91	121
1424.34	123
1424.77	127
1425.21	125
1425.64	161
1426.07	119
1426.51	143
1426.94	143
1427.38	105
1427.81	145
1428.24	127
1428.68	133
1429.11	171
1429.54	117
1429.98	133
1430.41	151
1430.84	111
1431.28	155
1431.71	123
1432.14	121
1432.57	107
1433.01	169
1433.44	129
1433.87	169
1434.31	93
1434.74	147
1435.17	143
1435.61	101
1436.04	163
1436.47	97
1436.9	169
1437.34	109
1437.77	159
1438.2	113
1438.63	169
1439.07	105
1439.5	169
1439.93	139
1440.36	99
1440.8	187
1441.23	99
1441.66	151
1442.09	99
1442.53	139
1442.96	123
1443.39	111
1443.82	127
1444.26	141
1444.69	137
1445.12	105
1445.55	131
1445.98	109
1446.42	133
1446.85	119
1447.28	137
1447.71	155
1448.14	107
1448.57	121
1449.01	145
1449.44	119
1449.87	171
1450.3	117
1450.73	137
1451.17	127
1451.6	135
1452.03	147
1452.46	137
1452.89	139
1453.32	133
1453.76	165
1454.19	103
1454.62	199
1455.05	87
1455.48	145
1455.91	115
1456.34	99
1456.77	155
1457.21	115
1457.64	141
1458.07	105
1458.5	148.814
1458.93	89.5077
1459.36	170.05
1459.79	99.7543
1460.22	155.37
1460.65	130.304
1461.08	128.341
1461.52	181.501
1461.95	100.186
1462.38	146.935
1462.81	118.663
1463.24	161.898
1463.67	121.525
1464.1	139.714
1464.53	99.496
1464.96	156.782
1465.39	137.639
1465.82	130.849
1466.25	152.187
1466.68	126.171
1467.11	170.993
1467.54	122.392
1467.98	125.797
1468.41	138.143
1468.84	123.65
1469.27	133.639
1469.7	139.231
1470.13	132.376
1470.56	132.05
1470.99	121.99
1471.42	125.151
1471.85	129.567
1472.28	137.612
1472.71	130.985
1473.14	160.162
1473.57	118.257
1474	136.221
1474.43	137.005
1474.86	125.146
1475.29	151.098
1475.72	109.748
1476.15	157.036
1476.58	120.49
1477.01	169.896
1477.44	133.427
1477.87	151.809
1478.3	120.718
1478.72	133.553
1479.15	162.266
1479.58	98.3814
1480.01	149.697
1480.44	109.159
1480.87	143.507
1481.3	116.51
1481.73	160.324
1482.16	131.271
1482.59	135.601
1483.02	137.507
1483.45	119.598
1483.88	147.58
1484.31	93.2904
1484.74	142.4
1485.17	127.082
1485.59	137.066
1486.02	136.934
1486.45	123.194
1486.88	135.041
1487.31	136.463
1487.74	127.772
1488.17	126.302
1488.6	133.092
1489.02	143.167
1489.45	113.584
1489.88	134.27
1490.31	125.333
1490.74	153.333
1491.17	132.203
1491.6	143.057
1492.03	152.737
1492.45	128.029
1492.88	145.742
1493.31	126.708
1493.74	128.749
1494.17	114.129
1494.6	138.776
1495.02	134.379
1495.45	149.618
1495.88	128.313
1496.31	119.205
1496.74	140.716
1497.17	124.584
1497.59	147.497
1498.02	127.359
1498.45	126.193
1498.88	125.77
1499.31	132.868
1499.73	138.481
1500.16	129.545
1500.59	119.136
1501.02	111.154
1501.45	142.508
1501.87	125.633
1502.13	115
1502.56	157
1502.99	71
1503.43	169
1503.86	99
1504.29	165
1504.72	145
1505.16	115
1505.59	125
1506.02	139
1506.46	131
1506.89	151
1507.32	145
1507.75	109
1508.19	147
1508.62	131
1509.05	133
1509.49	177
1509.92	125
1510.35	109
1510.78	131
1511.21	135
1511.65	153
1512.08	103
1512.51	137
1512.94	123
1513.38	145
1513.81	111
1514.24	163
1514.67	119
1515.11	127
1515.54	163
1515.97	109
1516.4	191
1516.83	69
1517.27	161
1517.7	117
1518.13	153
1518.56	151
1518.99	137
1519.42	143
1519.86	133
1520.29	159
1520.72	113
1521.15	193
1521.58	65
1522.01	163
1522.45	119
1522.88	135
1523.31	157
1523.74	107
1524.17	125
1524.6	137
1525.04	151
1525.47	143
1525.9	151
1526.33	101
1526.76	147
1527.19	127
1527.62	141
1528.05	145
1528.49	99
1528.92	137
1529.35	167
1529.78	131
1530.21	165
1530.64	105
1531.07	125
1531.5	167
1531.93	141
1532.37	159
1532.8	139
1533.23	145
1533.66	153
1534.09	163
1534.52	119
1534.95	171
1535.38	91
1535.81	181
1536.24	137
1536.67	153
1537.1	157
1537.53	101
1537.96	157
1538.39	119
1538.82	165
1539.26	89
1539.68	153
1540.12	95
1540.55	163
1540.98	143
1541.41	135
1541.84	187
1542.27	89
1542.7	177
1543.13	127
1543.56	167
1543.99	115
1544.42	139
1544.85	137
1545.28	175
1545.71	135
1546.14	135
1546.57	179
1547	107
1547.43	169
1547.86	145
1548.29	143
1548.72	161
1549.14	121
1549.57	143
1550.01	175
1550.43	121
1550.86	153
1551.29	139
1551.72	123
1552.15	151
1552.58	167
1553.01	125
1553.44	165
1553.87	111
1554.3	163
1554.73	171
1555.16	111
1555.59	191
1556.01	129
1556.44	173
1556.87	153
1557.3	193
1557.73	131
1558.16	157
1558.59	135
1559.02	165
1559.45	183
1559.88	127
1560.3	187
1560.73	107
1561.16	177
1561.59	149
1562.02	169
1562.45	177
1562.88	163
1563.31	149
1563.73	195
1564.16	191
1564.59	119
1565.02	217
1565.45	147
1565.88	223
1566.3	147
1566.73	167
1567.16	201
1567.59	161
1568.02	191
1568.45	187
1568.88	217
1569.3	165
1569.73	189
1570.16	187
1570.59	205
1571.01	173
1571.44	191
1571.87	201
1572.3	201
1572.73	209
1573.15	205
1573.58	201
1574.01	227
1574.44	193
1574.87	211
1575.29	219
1575.72	187
1576.15	235
1576.58	197
1577	233
1577.43	225
1577.86	239
1578.29	227
1578.71	307
1579.14	223
1579.57	269
1580	287
1580.42	219
1580.85	277
1581.28	241
1581.71	303
1582.13	275
1582.56	315
1582.99	309
1583.41	325
1583.84	271
1584.27	369
1584.7	365
1585.12	285
1585.55	393
1585.98	315
1586.4	401
1586.83	365
1587.26	427
1587.68	405
1588.11	379
1588.54	429
1588.96	447
1589.39	433
1589.82	433
1590.24	463
1590.67	397
1591.1	495
1591.52	445
1591.95	505
1592.38	553
1592.8	499
1593.23	495
1593.65	483
1594.08	505
1594.51	517
1594.93	517
1595.36	415
1595.79	459
1596.21	389
1596.64	381
1597.06	423
1597.49	381
1597.92	331
1598.34	381
1598.77	329
1599.19	353
1599.62	309
1600.05	313
1600.47	249
1600.9	295
1601.32	277
1601.75	257
1602.18	261
1602.6	263
1603.03	245
1603.45	215
1603.88	269
1604.3	149
1604.73	243
1605.15	193
1605.58	201
1606	241
1606.43	177
1606.86	201
1607.28	165
1607.71	209
1608.13	131
1608.56	229
1608.98	135
1609.41	203
1609.83	189
1610.26	163
1610.68	213
1611.11	143
1611.53	171
1611.96	151
1612.38	185
1612.81	161
1613.23	173
1613.66	139
1614.08	193
1614.51	159
1614.93	163
1615.36	173
1615.78	145
1616.21	171
1616.63	187
1617.06	135
1617.48	187
1617.9	135
1618.33	139
1618.75	177
1619.18	175
1619.6	159
1620.03	137
1620.45	155
1620.88	145
1621.3	169
1621.72	119
1622.15	193
1622.57	129
1623	147
1623.42	159
1623.85	155
1624.27	195
1624.69	101
1625.12	141
1625.54	145
1625.97	181
1626.39	125
1626.81	175
1627.24	113
1627.66	153
1628.08	153
1628.51	129
1628.93	181
1629.36	85
1629.78	181
1630.2	137
1630.63	173
1631.05	109
1631.47	127
1631.9	137
1632.32	161
1632.74	143
1633.17	127
1633.59	177
1634.01	83
1634.44	169
1634.86	133
1635.28	143
1635.71	133
1636.13	117
1636.55	159
1636.98	153
1637.4	145
1637.82	163
1638.25	119
1638.67	125
1639.09	131
1639.51	169
1639.94	117
1640.36	129
1640.78	103
1641.21	129
1641.63	171
1642.05	89
1642.47	151
1642.9	99
1643.32	143
1643.74	133
1644.17	143
1644.59	125
1645.01	123
1645.43	145
1645.86	141
1646.28	139
1646.7	79
1647.12	175
1647.55	73
1647.97	165
1648.39	125
1648.81	137
1649.23	135
1649.66	109
1650.08	143
1650.5	149
1650.92	157
1651.35	87
1651.77	179
1652.19	77
1652.61	157
1653.03	121
1653.45	133
1653.88	145
1654.3	97
1654.72	143
1655.14	131
1655.56	145
1655.99	105
1656.41	145
1656.83	111
1657.25	171
1657.67	121
1658.09	139
1658.52	151
1658.94	103
1659.36	151
1659.78	131
1660.2	137
1660.62	119
1661.04	119
1661.47	137
1661.89	139
1662.31	131
1662.73	115
1663.15	127
1663.57	149
1663.99	133
1664.41	133
1664.83	113
1665.26	159
1665.68	99
1666.1	137
1666.52	145
1666.94	99
1667.36	169
1667.78	91
1668.2	145
1668.62	105
1669.04	157
1669.46	117
1669.89	147
1670.31	103
1670.73	137
1671.15	155
1671.57	89
1671.99	183
1672.41	73
1672.83	155
1673.25	119
1673.67	149
1674.09	119
1674.51	111
1674.93	133
1675.35	127
1675.77	133
1676.19	89
1676.61	149
1677.03	73
1677.45	147
1677.87	101
1678.29	139
1678.71	147
1679.13	105
1679.55	135
1679.97	135
1680.39	121
1680.81	127
1681.23	131
1681.65	111
1682.07	135
1682.49	91
1682.91	117
1683.33	155
1683.75	103
1684.17	117
1684.59	135
1685.01	121
1685.43	143
1685.85	103
1686.27	117
1686.69	141
1687.11	107
1687.53	145
1687.95	109
1688.37	119
1688.78	121
1689.2	139
1689.62	99
1690.04	189
1690.46	87
1690.88	151
1691.3	115
1691.72	107
1692.14	155
1692.56	99
1692.98	121
1693.39	89
1693.81	145
1694.23	109
1694.65	143
1695.07	89
1695.49	151
1695.91	113
1696.33	99
1696.75	159
1697.16	89
1697.58	151
1698	83
1698.42	131
1698.84	139
1699.26	125
1699.68	87
1700.09	145
1700.51	135
1700.93	121
1701.35	153
1701.77	109
1702.19	137
1702.6	107
1703.02	117
1703.44	155
1703.86	97
1704.28	101
1704.69	125
1705.11	137
1705.53	151
1705.95	85
1706.37	139
1706.78	125
1707.2	115
1707.62	131
1708.04	139
1708.46	111
1708.87	107
1709.29	143
1709.71	107
1710.13	167
1710.54	73
1710.96	153
1711.38	117
1711.8	135
1712.22	137
1712.63	133
1713.05	111
1713.47	103
1713.89	131
1714.3	115
1714.72	185
1715.14	67
1715.56	165
1715.97	123
1716.39	147
1716.81	125
1717.22	117
1717.64	117
1718.06	121
1718.48	139
1718.89	113
1719.31	155
1719.73	59
1720.14	183
1720.56	107
1720.98	139
1721.39	145
1721.81	107
1722.23	149
1722.64	119
1723.06	135
1723.48	137
1723.89	113
1724.31	99
1724.73	135
1725.14	123
1725.56	107
1725.98	117
1726.39	105
1726.81	133
1727.23	129
1727.64	97
1728.06	151
1728.48	93
1728.89	123
1729.31	139
1729.72	125
1730.14	133
1730.56	85
1730.97	135
1731.39	127
1731.8	155
1732.22	91
1732.64	163
1733.05	81
1733.47	141
1733.89	135
1734.3	111
1734.72	153
1735.13	57
1735.55	159
1735.96	115
1736.38	137
1736.8	91
1737.21	127
1737.63	89
1738.04	139
1738.46	137
1738.87	101
1739.29	159
1739.71	61
1740.12	149
1740.54	119
1740.95	125
1741.37	109
1741.78	99
1742.2	107
1742.61	137
1743.03	125
1743.44	121
1743.86	141
1744.27	85
1744.69	155
1745.1	113
1745.52	133
1745.93	121
1746.35	105
1746.77	121
1747.18	133
1747.59	111
1748.01	139
1748.42	131
1748.84	95
1749.25	123
1749.67	119
1750.08	119
1750.5	113
1750.91	133
1751.33	123
1751.74	143
1752.16	83
1752.57	161
1752.99	65
1753.4	163
1753.81	123
1754.23	131
1754.64	115
1755.06	117
1755.47	133
1755.89	133
1756.3	149
1756.72	69
1757.13	155
1757.54	67
1757.96	159
1758.37	135
1758.78	129
1759.2	151
1759.61	85
1760.03	149
1760.44	109
1760.86	153
1761.27	81
1761.68	137
1762.1	81
1762.51	141
1762.92	127
1763.34	99
1763.75	161
1764.17	77
1764.58	155
1764.99	111
1765.41	161
1765.82	119
1766.23	115
1766.65	103
1767.06	135
1767.47	135
1767.89	113
1768.3	137
1768.71	97
1769.13	139
1769.54	131
1769.95	111
1770.37	109
1770.78	119
1771.19	135
1771.61	151
1772.02	99
1772.43	139
1772.85	105
1773.26	115
1773.67	119
1774.09	123
1774.5	121
1774.91	133
1775.32	107
1775.74	125
1776.15	131
1776.56	91
1776.97	145
1777.39	87
1777.8	137
1778.21	115
1778.62	139
1779.04	131
1779.45	117
1779.86	111
1780.28	125
1780.69	133
1781.1	79
1781.51	171
1781.92	79
1782.34	147
1782.75	99
1783.16	119
1783.57	121
1783.99	85
1784.4	127
1784.81	129
1785.22	127
1785.63	75
1786.05	167
1786.46	107
1786.87	149
1787.28	105
1787.69	111
1788.11	151
1788.52	109
1788.93	131
1789.34	121
1789.75	117
1790.17	99
1790.58	119
1790.99	125
1791.4	139
1791.81	103
1792.22	115
1792.63	141
1793.05	97
1793.46	115
1793.87	135
1794.28	113
1794.69	147
1795.1	81
1795.52	147
1795.93	145
1796.34	89
1796.75	147
1797.16	107
1797.57	125
1797.98	87
1798.39	121
1798.81	73
1799.22	165
1799.63	87
1800.04	135
1800.45	133
1800.86	97
1801.27	127
1801.68	83
1802.09	141
1802.5	99
1802.91	139
1803.32	111
1803.73	143
1804.15	101
1804.56	145
1804.97	127
1805.38	107
1805.79	181
1806.2	89
1806.61	147
1807.02	85
1807.43	137
1807.84	111
1808.25	125
1808.66	105
1809.07	147
1809.48	111
1809.89	119
1810.3	121
1810.71	87
1811.12	135
1811.53	105
1811.94	117
1812.35	143
1812.76	87
1813.17	131
1813.58	117
1813.99	117
1814.4	149
1814.81	103
1815.22	107
1815.63	119
1816.04	135
1816.45	123
1816.86	153
1817.27	95
1817.68	115
1818.09	153
1818.5	95
1818.91	175
1819.32	69
1819.73	159
1820.14	101
1820.55	131
1820.96	111
1821.37	115
1821.78	109
1822.19	83
1822.6	157
1823.01	85
1823.42	177
1823.82	45
1824.23	153
1824.64	113
1825.05	129
1825.46	141
1825.87	95
1826.28	139
1826.69	91
1827.1	143
1827.51	115
1827.91	139
1828.32	95
1828.73	141
1829.14	123
1829.55	117
1829.96	155
1830.37	91
1830.78	137
1831.18	109
1831.59	123
1832	131
1832.41	99
1832.82	83
1833.23	137
1833.64	123
1834.05	121
1834.45	135
1834.86	115
1835.27	153
1835.68	119
1836.09	115
1836.49	149
1836.9	89
1837.31	99
1837.72	129
1838.13	123
1838.53	141
1838.94	99
1839.35	129
1839.76	111
1840.17	121
1840.58	101
1840.98	153
1841.39	77
1841.8	121
1842.21	125
1842.61	99
1843.02	147
1843.43	65
1843.84	149
1844.25	117
1844.65	137
1845.06	109
1845.47	125
1845.88	87
1846.28	110.962
1846.69	133.01
1847.1	97.5957
1847.51	164.96
1847.91	44.584
1848.32	151.283
1848.73	114.506
1849.14	113.775
1849.54	131.42
1849.95	111.551
1850.36	139.048
1850.77	114.416
1851.17	123.026
1851.58	120.707
1851.99	136.326
1852.39	86.783
1852.8	138.362
1853.21	120.779
1853.62	126.495
1854.02	117.238
1854.43	107.044
1854.84	137.101
1855.24	127.476
1855.65	111.286
1856.06	125.876
1856.46	86.5386
1856.87	118.425
1857.28	130.33
1857.68	130.82
1858.09	132.463
1858.5	89.8827
1858.9	133.191
1859.31	114.589
1859.72	130.161
1860.12	112.631
1860.53	127.632
1860.94	96.6351
1861.34	116.04
1861.75	140.394
1862.15	119.134
1862.56	144.762
1862.97	90.7842
1863.37	139.283
1863.78	117.318
1864.19	121.067
1864.59	111.989
1865	128.45
1865.4	101.872
1865.81	130.409
1866.22	115.985
1866.62	107.597
1867.03	131.876
1867.43	78.9362
1867.84	127.595
1868.25	123.304
1868.65	128.558
1869.06	108.196
1869.46	118.669
1869.87	118.194
1870.28	131.172
1870.68	127.418
1871.09	122.446
1871.49	123.802
1871.9	96.2682
1872.3	130.243
1872.71	128.014
1873.12	124.374
1873.52	122.753
1873.93	110.477
1874.33	123.721
1874.74	125.251
1875.14	110.721
1875.55	128.79
1875.95	112.685
1876.36	99.9651
1876.76	123.668
1877.17	122.02
1877.57	123.911
1877.98	126.092
1878.38	109.022
1878.79	130.344
1879.19	122.612
1879.6	105.895
1880	127.146
1880.41	126.002
1880.81	116.102
1881.22	122.949
1881.63	136.574
1882.03	120.119
1882.43	140.072
1882.84	101.26
1883.24	149.015
1883.65	132.35
1884.05	132.751
1884.46	134.345
1884.86	105.057
1885.27	99.2095
1885.67	108.286
1886.08	138.677
1886.48	97.7005
1886.89	130.678
1887.29	73.2385
1887.69	150.846
1888.1	125.924
1888.5	131.327
1888.85	135
1889.26	109
1889.67	125
1890.08	123
1890.49	143
1890.9	127
1891.3	139
1891.71	77
1892.12	157
1892.53	121
1892.94	121
1893.35	121
1893.76	101
1894.17	123
1894.58	131
1894.99	109
1895.4	129
1895.81	111
1896.22	113
1896.62	133
1897.03	129
1897.44	111
1897.85	103
1898.26	101
1898.67	137
1899.08	135
1899.49	103
1899.9	143
1900.3	95
1900.71	137
1901.12	129
1901.53	115
1901.94	117
1902.35	93
1902.75	103
1903.16	115
1903.57	163
1903.98	77
1904.39	171
1904.8	63
1905.21	169
1905.61	103
1906.02	141
1906.43	135
1906.84	77
1907.25	125
1907.66	129
1908.06	171
1908.47	69
1908.88	149
1909.29	87
1909.7	137
1910.1	101
1910.51	101
1910.92	149
1911.33	65
1911.73	133
1912.14	103
1912.55	143
1912.96	113
1913.37	119
1913.77	105
1914.18	139
1914.59	107
1915	117
1915.4	133
1915.81	97
1916.22	139
1916.63	139
1917.03	129
1917.44	133
1917.85	119
1918.26	117
1918.66	143
1919.07	109
1919.48	123
1919.89	105
1920.29	115
1920.7	131
1921.11	135
1921.51	107
1921.92	119
1922.33	99
1922.73	107
1923.14	117
1923.55	81
1923.96	143
1924.36	75
1924.77	159
1925.18	121
1925.58	120.2
1925.99	107
1926.4	139
1926.8	107
1927.21	127
1927.62	133
1928.02	89
1928.43	171
1928.84	75
1929.24	153
1929.65	93
1930.06	151
1930.46	105
1930.87	109
1931.28	115
1931.68	103
1932.09	141
1932.49	73
1932.9	149
1933.31	55
1933.71	141
1934.12	101
1934.53	127
1934.93	125
1935.34	87
1935.74	127
1936.15	131
1936.56	133
1936.96	105
1937.37	143
1937.78	99
1938.18	137
1938.59	113
1938.99	119
1939.4	145
1939.8	113
1940.21	139
1940.62	131
1941.02	109
1941.43	111
1941.83	127
1942.24	105
1942.64	145
1943.05	107
1943.45	123
1943.86	127
1944.27	101
1944.67	123
1945.08	137
1945.48	91
1945.89	137
1946.29	95
1946.7	127
1947.1	141
1947.51	99
1947.91	139
1948.32	103
1948.72	109
1949.13	107
1949.53	133
1949.94	97
1950.34	183
1950.75	97
1951.15	145
1951.56	121
1951.96	109
1952.37	137
1952.77	95
1953.18	145
1953.58	105
1953.99	153
1954.39	111
1954.8	151
1955.2	87
1955.61	151
1956.01	115
1956.42	85
1956.82	157
1957.23	71
1957.63	141
1958.03	91
1958.44	143
1958.84	125
1959.25	109
1959.65	73
1960.06	145
1960.46	127
1960.86	125
1961.27	159
1961.67	77
1962.08	145
1962.48	115
1962.89	139
1963.29	131
1963.69	119
1964.1	125
1964.5	129
1964.91	129
1965.31	145
1965.71	117
1966.12	111
1966.52	135
1966.93	133
1967.33	105
1967.73	147
1968.14	109
1968.54	119
1968.94	135
1969.35	103
1969.75	145
1970.15	65
1970.56	135
1970.96	109
1971.37	113
1971.77	101
1972.17	145
1972.58	89
1972.98	113
1973.38	139
1973.79	109
1974.19	185
1974.59	73
1974.99	157
1975.4	103
1975.8	145
1976.21	113
1976.61	119
1977.01	103
1977.41	131
1977.82	147
1978.22	81
1978.62	155
1979.03	47
1979.43	167
1979.83	131
1980.24	131
1980.64	119
1981.04	113
1981.44	121
1981.85	135
1982.25	133
1982.65	99
1983.05	157
1983.46	51
1983.86	169
1984.26	113
1984.66	131
1985.07	137
1985.47	109
1985.87	127
1986.27	123
1986.68	109
1987.08	129
1987.48	111
1987.88	101
1988.29	143
1988.69	115
1989.09	125
1989.49	137
1989.89	103
1990.3	139
1990.7	153
1991.1	93
1991.5	167
1991.9	87
1992.31	123
1992.71	147
1993.11	133
1993.51	127
1993.91	101
1994.32	113
1994.72	103
1995.12	145
1995.52	91
1995.92	111.8
1996.32	85
1996.73	135
1997.13	123
1997.53	145
1997.93	149
1998.33	93
1998.73	137
1999.14	111
1999.54	139
1999.94	91
2000.34	159
2000.74	89
2001.14	169
2001.54	111
2001.94	133
2002.35	165
2002.75	57
2003.15	163
2003.55	141.067
2003.95	155.667
2004.35	164.667
2004.75	161.067
2005.15	93
2005.55	145
2005.96	119
2006.36	111
2006.76	137
2007.16	61
2007.56	149
2007.96	107
2008.36	137
2008.76	111
2009.16	109
2009.56	119
2009.96	129
2010.36	113
2010.76	115
2011.16	113
2011.57	109
2011.97	153
2012.37	149
2012.77	103
2013.17	135
2013.57	97
2013.97	145
2014.37	131
2014.77	99
2015.17	155
2015.57	85
2015.97	113
2016.37	121
2016.77	127
2017.17	129
2017.57	131
2017.97	107
2018.37	125
2018.77	143
2019.17	89
2019.57	153
2019.97	67
2020.37	145
2020.77	121
2021.17	119
2021.57	121
2021.97	111
2022.37	117
2022.77	147
2023.17	153
2023.57	83
2023.97	169
2024.37	63
2024.77	155
2025.17	113
2025.57	147
2025.97	147
2026.37	103
2026.77	135
2027.16	139
2027.56	153
2027.96	79
2028.36	175
2028.76	81
2029.16	161
2029.56	97
2029.96	117
2030.36	151
2030.76	63
2031.16	139
2031.56	123
2031.96	143
2032.35	99
2032.75	117
2033.15	87
2033.55	143
2033.95	95
2034.35	111
2034.75	139
2035.15	93
2035.54	143
2035.94	143
2036.34	109
2036.74	161
2037.14	93
2037.54	135
2037.94	133
2038.34	105
2038.74	139
2039.13	115
2039.53	119
2039.93	125
2040.33	155
2040.73	103
2041.12	153
2041.52	91
2041.92	149
2042.32	129
2042.72	81
2043.12	147
2043.51	103
2043.91	139
2044.31	93
2044.71	155
2045.11	101
2045.51	149
2045.9	75
2046.3	133
2046.7	109
2047.1	109
2047.49	143
2047.89	71
2048.29	137
2048.69	77
2049.09	137
2049.48	125
2049.88	141
2050.28	103
2050.68	151
2051.07	125
2051.47	97
2051.87	139
2052.27	93
2052.67	139
2053.06	105
2053.46	123
2053.86	131
2054.26	129
2054.65	101
2055.05	133
2055.45	115
2055.85	115
2056.24	127
2056.64	113
2057.04	133
2057.43	93
2057.83	109
2058.23	157
2058.62	99
2059.02	119
2059.42	129
2059.82	119
2060.21	143
2060.61	97
2061.01	157
2061.4	133
2061.8	165
2062.2	119
2062.59	131
2062.99	93
2063.39	103
2063.79	141
2064.18	105
2064.58	159
2064.97	55
2065.37	155
2065.77	115
2066.16	153
2066.56	103
2066.96	111
2067.35	93
2067.75	127
2068.15	139
2068.54	89
2068.94	161
2069.34	59
2069.73	149
2070.13	113
2070.52	129
2070.92	109
2071.32	109
2071.71	111
2072.11	111
2072.51	139
2072.9	113
2073.3	147
2073.69	83
2074.09	141
2074.49	127
2074.88	127
2075.28	141
2075.67	103
2076.07	127
2076.47	125
2076.86	117
2077.26	109
2077.65	125
2078.05	75
2078.44	141
2078.84	119
2079.23	121
2079.63	117
2080.03	91
2080.42	137
2080.82	149
2081.21	89
2081.61	135
2082	75
2082.4	119
2082.79	145
2083.19	131
2083.58	121
2083.98	101
2084.37	115
2084.77	139
2085.16	151
2085.56	85
2085.95	173
2086.35	95
2086.74	131
2087.14	129
2087.53	127
2087.93	159
2088.32	91
2088.72	137
2089.11	109
2089.51	153
2089.9	79
2090.3	165
2090.69	67
2091.09	129
2091.48	121
2091.88	119
2092.27	153
2092.67	59
2093.06	131
2093.46	109
2093.85	139
2094.25	103
2094.64	145
2095.03	97
2095.43	155
2095.82	129
2096.22	117
2096.61	155
2097.01	69
2097.4	153
2097.79	101
2098.19	151
2098.58	109
2098.98	141
2099.37	117
2099.76	135
2100.16	113
2100.55	125
2100.95	137
2101.34	93
2101.73	145
2102.13	113
2102.52	129
2102.92	127
2103.31	95
2103.7	133
2104.1	139
2104.49	105
2104.88	151
2105.28	99
2105.67	115
2106.07	125
2106.46	135
2106.85	99
2107.25	127
2107.64	95
2108.03	135
2108.43	149
2108.82	105
2109.21	159
2109.61	75
2110	149
2110.39	107
2110.79	143
2111.18	103
2111.57	127
2111.97	113
2112.36	125
2112.75	165
2113.15	67
2113.54	175
2113.93	65
2114.32	139
2114.72	103
2115.11	123
2115.5	135
2115.9	107
2116.29	139
2116.68	133
2117.08	153
2117.47	81
2117.86	179
2118.25	81
2118.65	147
2119.04	95
2119.43	119
2119.82	157
2120.22	107
2120.61	119
2121	125
2121.39	115
2121.79	127
2122.18	143
2122.57	81
2122.96	163
2123.36	93
2123.75	119
2124.14	135
2124.53	103
2124.93	123
2125.32	129
2125.71	97
2126.1	141
2126.49	105
2126.89	121
2127.28	125
2127.67	109
2128.06	105
2128.45	141
2128.85	117
2129.24	115
2129.63	131
2130.02	97
2130.41	171
2130.81	73
2131.2	151
2131.59	115
2131.98	115
2132.37	127
2132.76	113
2133.16	125
2133.55	97
2133.94	143
2134.33	89
2134.72	169
2135.11	53
2135.5	149
2135.9	117
2136.29	119
2136.68	141
2137.07	67
2137.46	127
2137.85	105
2138.24	151
2138.63	99
2139.03	139
2139.42	77
2139.81	123
2140.2	109
2140.59	115
2140.98	133
2141.37	99
2141.76	145
2142.15	113
2142.55	121
2142.94	137
2143.33	117
2143.72	91
2144.11	143
2144.5	117
2144.89	113
2145.28	133
2145.67	99
2146.06	121
2146.45	119
2146.84	119
2147.23	139
2147.62	85
2148.02	111
2148.4	145
2148.8	109
2149.19	145
2149.58	81
2149.97	99
2150.36	121
2150.75	151
2151.14	99
2151.53	131
2151.92	71
2152.31	125
2152.7	121
2153.09	103
2153.48	141
2153.87	79
2154.26	145
2154.65	121
2155.04	141
2155.43	77
2155.82	153
2156.21	79
2156.6	139
2156.99	145
2157.38	91
2157.77	185
2158.16	63
2158.55	145
2158.94	97
2159.33	141
2159.72	111
2160.11	117
2160.5	103
2160.89	113
2161.28	137
2161.66	103
2162.05	157
2162.44	67
2162.83	139
2163.22	117
2163.61	127
2164	121
2164.39	95
2164.78	139
2165.17	129
2165.56	127
2165.95	133
2166.34	117
2166.73	97
2167.11	139
2167.5	129
2167.89	117
2168.28	119
2168.67	105
2169.06	145
2169.45	139
2169.84	113
2170.23	147
2170.62	113
2171	115
2171.39	117
2171.78	109
2172.17	121
2172.56	135
2172.95	99
2173.34	135
2173.73	139
2174.11	111
2174.5	163
2174.89	75
2175.28	123
2175.67	97
2176.06	151
2176.45	111
2176.83	105
2177.22	105
2177.61	109
2178	151
2178.39	73
2178.78	153
2179.16	59
2179.55	141
2179.94	109
2180.33	111
2180.72	133
2181.1	99
2181.49	143
2181.88	109
2182.27	139
2182.66	71
2183.04	145
2183.43	83
2183.82	141
2184.21	117
2184.6	111
2184.98	137
2185.37	57
2185.76	143
2186.15	121
2186.53	119
2186.92	95
2187.31	95
2187.7	115
2188.08	123
2188.47	99
2188.86	121
2189.25	117
2189.63	109
2190.02	109
2190.41	113
2190.8	99
2191.18	129
2191.57	109
2191.96	139
2192.34	139
2192.73	89
2193.12	143
2193.51	91
2193.89	119
2194.28	117
2194.67	141
2195.06	99
2195.44	143
2195.83	85
2196.22	133
2196.6	141
2196.99	89
2197.38	153
2197.76	87
2198.15	123
2198.54	99
2198.92	145
2199.31	91
2199.7	139
2200.08	79
2200.47	133
2200.86	117
2201.24	79
2201.63	177
2202.02	81
2202.4	161
2202.79	89
2203.18	147
2203.56	123
2203.95	117
2204.34	99
2204.72	113
2205.11	133
2205.49	99
2205.88	159
2206.27	77
2206.65	149
2207.04	103
2207.43	119
2207.81	143
2208.2	107
2208.58	99
2208.97	127
2209.36	95
2209.74	107
2210.13	121
2210.51	109
2210.9	139
2211.29	101
2211.67	95
2212.06	145
2212.44	99
2212.83	95
2213.21	139
2213.6	87
2213.98	149
2214.37	93
2214.76	139
2215.14	105
2215.53	121
2215.91	118.997
2216.3	145.906
2216.69	85.6905
2217.07	111.249
2217.46	130.873
2217.84	105.315
2218.23	141.361
2218.61	53.8044
2219	146.97
2219.38	106.695
2219.77	128.857
2220.15	123.782
2220.54	106.436
2220.92	104.578
2221.31	116.369
2221.69	136.8
2222.08	101.388
2222.46	145.634
2222.85	69.5547
2223.23	154.172
2223.62	103.447
2224	110.887
2224.39	126.216
2224.77	105.607
2225.16	121.318
2225.54	122.252
2225.93	124.504
2226.31	107.206
2226.7	119.52
2227.08	93.3242
2227.47	153.645
2227.85	114.778
2228.23	97.8162
2228.62	125.299
2229	100.203
2229.39	129.092
2229.77	113.623
2230.16	109.619
2230.54	146.073
2230.92	85.4228
2231.31	104.963
2231.69	137.114
2232.08	118.866
2232.46	105.782
2232.85	101.435
2233.23	102.089
2233.62	119.679
2234	118.303
2234.38	99.8026
2234.77	140.114
2235.15	81.9201
2235.54	120.996
2235.92	140.922
2236.3	130.264
2236.69	134.389
2237.07	95.9481
2237.46	105.52
2237.84	122.548
2238.22	125.146
2238.61	85.3191
2238.99	120.889
2239.37	90.241
2239.76	130.982
2240.14	128.639
2240.53	117.212
2240.91	121.062
2241.29	95.4533
2241.68	112.054
2242.06	120.282
2242.44	121.548
2242.83	102.867
2243.21	133.264
2243.59	96.0258
2243.98	132.874
2244.36	116.962
2244.74	110.162
2245.13	110.462
2245.51	108.108
2245.89	115.51
2246.28	114.353
2246.66	127.4
2247.04	108.21
2247.43	143.638
2247.81	84.4286
2248.19	131.608
2248.58	103.354
2248.96	126.47
2249.34	107.667
2249.73	103.237
2250.11	102.247
2250.49	140.395
2250.88	141.632
2251.26	70.898
2251.64	166.179
2252.02	68.9938
2252.41	147.84
2252.79	80.5627
2252.8	79
2253.18	141
2253.57	129
2253.96	103
2254.35	113
2254.74	131
2255.12	133
2255.51	59
2255.9	155
2256.29	83
2256.67	157
2257.06	105
2257.45	119
2257.84	147
2258.22	105
2258.61	113
2259	123
2259.39	125
2259.77	95
2260.16	133
2260.55	83
2260.94	123
2261.32	101
2261.71	99
2262.1	135
2262.48	85
2262.87	117
2263.26	121
2263.65	113
2264.03	107
2264.42	101
2264.81	119
2265.19	123
2265.58	95
2265.97	131
2266.35	143
2266.74	99
2267.13	119
2267.51	145
2267.9	85
2268.29	159
2268.67	97
2269.06	125
2269.45	123
2269.83	97
2270.22	147
2270.61	113
2270.99	133
2271.38	101
2271.77	135
2272.15	109
2272.54	143
2272.93	67
2273.31	149
2273.7	115
2274.08	107
2274.47	149
2274.86	95
2275.24	117
2275.63	101
2276.02	129
2276.4	83
2276.79	153
2277.17	49
2277.56	131
2277.95	105
2278.33	101
2278.72	137
2279.1	87
2279.49	145
2279.88	91
2280.26	139
2280.65	105
2281.03	145
2281.42	77
2281.8	149
2282.19	127
2282.58	101
2282.96	159
2283.35	83
2283.73	153
2284.12	89
2284.5	129
2284.89	147
2285.28	123
2285.66	109
2286.05	113
2286.43	111
2286.82	109
2287.2	139
2287.59	97
2287.97	121
2288.36	123
2288.74	109
2289.13	143
2289.51	97
2289.9	93
2290.28	131
2290.67	117
2291.05	131
2291.44	95
2291.82	99
2292.21	131
2292.59	127
2292.98	113
2293.36	155
2293.75	77
2294.13	117
2294.52	133
2294.9	105
2295.29	155
2295.67	77
2296.06	115
2296.44	107
2296.83	127
2297.21	85
2297.6	145
2297.98	73
2298.36	127
2298.75	131
2299.13	113
2299.52	165
2299.9	39
2300.29	143
2300.67	97
2301.06	169
2301.44	101
2301.82	123
2302.21	87
2302.59	131
2302.98	137
2303.36	107
2303.75	173
2304.13	51
2304.51	161
2304.9	107
2305.28	131
2305.67	113
2306.05	133
2306.44	109
2306.82	135
2307.2	117
2307.59	115
2307.97	153
2308.35	77
2308.74	155
2309.12	113
2309.51	123
2309.89	105
2310.27	85
2310.66	119
2311.04	153
2311.42	95
2311.81	137
2312.19	113
2312.57	97
2312.96	111
2313.34	111
2313.73	109
2314.11	105
2314.49	123
2314.88	131
2315.26	147
2315.64	111
2316.03	161
2316.41	91
2316.79	119
2317.18	123
2317.56	123
2317.94	117
2318.32	101
2318.71	125
2319.09	135
2319.47	135
2319.86	75
2320.24	147
2320.62	85
2321.01	139
2321.39	97
2321.77	139
2322.15	111
2322.54	107
2322.92	105
2323.3	113
2323.69	149
2324.07	53
2324.45	183
2324.83	63
2325.22	151
2325.6	107
2325.98	115
2326.36	123
2326.75	73
2327.13	155
2327.51	111
2327.89	135
2328.28	87
2328.66	175
2329.04	87
2329.42	157
2329.81	105
2330.19	123
2330.57	149
2330.95	91
2331.33	143
2331.72	119
2332.1	147
2332.48	115
2332.86	117
2333.24	105
2333.63	131
2334.01	101
2334.39	117
2334.77	147
2335.15	87
2335.54	141
2335.92	129
2336.3	105
2336.68	127
2337.06	101
2337.44	121
2337.83	139
2338.21	93
2338.59	123
2338.97	131
2339.35	117
2339.73	127
2340.12	123
2340.5	101
2340.88	145
2341.26	79
2341.64	117
2342.02	141
2342.41	111
2342.79	149
2343.17	99
2343.55	137
2343.93	117
2344.31	145
2344.69	69
2345.07	137
2345.45	87
2345.84	121
2346.22	123
2346.6	87
2346.98	159
2347.36	73
2347.74	149
2348.12	79
2348.5	159
2348.88	93
2349.26	129
2349.65	103
2350.03	141
2350.41	139
2350.79	77
2351.17	159
2351.55	69
2351.93	161
2352.31	93
2352.69	133
2353.07	129
2353.45	121
2353.83	93
2354.21	139
2354.59	137
2354.98	73
2355.35	145
2355.74	73
2356.12	147
2356.5	91
2356.88	125
2357.26	135
2357.64	121
2358.02	113
2358.4	141
2358.78	111
2359.16	127
2359.54	147
2359.92	99
2360.3	143
2360.68	101
2361.06	127
2361.44	149
2361.82	113
2362.2	115
2362.58	141
2362.96	117
2363.34	163
2363.72	113
2364.1	119
2364.48	127
2364.86	91
2365.24	115
2365.62	141
2366	99
2366.38	105
2366.75	123
2367.14	91
2367.51	159
2367.89	63
2368.27	133
2368.65	117
2369.03	139
2369.41	139
2369.79	125
2370.17	105
2370.55	107
2370.93	147
2371.31	99
2371.69	193
2372.07	53
2372.45	161
2372.83	111
2373.2	137
2373.58	147
2373.96	95
2374.34	125
2374.72	115
2375.1	139
2375.48	115
2375.86	175
2376.24	71
2376.61	135
2376.99	107
2377.37	135
2377.75	141
2378.13	91
2378.51	105
2378.89	115
2379.27	133
2379.65	131
2380.02	105
2380.4	71
2380.78	149
2381.16	101
2381.54	111
2381.92	143
2382.3	109
2382.67	147
2383.05	143
2383.43	131
2383.81	151
2384.19	101
2384.57	107
2384.94	121
2385.32	111
2385.7	141
2386.08	123
2386.46	97
2386.83	133
2387.21	149
2387.59	107
2387.97	165
2388.35	93
2388.73	125
2389.1	141
2389.48	105
2389.86	125
2390.24	93
2390.62	119
2390.99	121
2391.37	149
2391.75	73
2392.13	169
2392.5	77
2392.88	153
2393.26	141
2393.64	129
2394.01	157
2394.39	71
2394.77	147
2395.15	97
2395.52	151
2395.9	87
2396.28	163
2396.66	81
2397.04	143
2397.41	139
2397.79	115
2398.17	141
2398.54	61
2398.92	159
2399.3	97
2399.68	121
2400.05	91
2400.43	127
2400.81	101
2401.18	149
2401.56	119
2401.94	111
2402.32	153
2402.69	83
2403.07	157
2403.45	129
2403.82	139
2404.2	127
2404.58	113
2404.95	123
2405.33	153
2405.71	111
2406.09	129
2406.46	127
2406.84	103
2407.22	145
2407.59	129
2407.97	143
2408.34	121
2408.72	101
2409.1	121
2409.47	155
2409.85	121
2410.23	133
2410.6	119
2410.98	119
2411.36	153
2411.73	135
2412.11	113
2412.49	119
2412.86	95
2413.24	133
2413.61	139
2413.99	85
2414.37	163
2414.74	93
2415.12	149
2415.5	129
2415.87	143
2416.25	125
2416.62	117
2417	123
2417.37	137
2417.75	135
2418.13	87
2418.5	179
2418.88	81
2419.25	165
2419.63	111
2420.01	145
2420.38	127
2420.76	107
2421.13	107
2421.51	141
2421.88	163
2422.26	69
2422.64	167
2423.01	83
2423.39	169
2423.76	115
2424.14	123
2424.51	143
2424.89	103
2425.26	149
2425.64	127
2426.01	145
2426.39	115
2426.76	151
2427.14	101
2427.52	149
2427.89	119
2428.26	125
2428.64	145
2429.02	95
2429.39	145
2429.77	135
2430.14	125
2430.52	127
2430.89	125
2431.26	101
2431.64	161
2432.02	95
2432.39	145
2432.77	155
2433.14	107
2433.51	127
2433.89	145
2434.26	123
2434.64	153
2435.01	117
2435.39	147
2435.76	159
2436.14	139
2436.51	137
2436.89	141
2437.26	133
2437.63	121
2438.01	161
2438.38	121
2438.76	179
2439.13	81
2439.51	171
2439.88	177
2440.26	123
2440.63	169
2441	133
2441.38	133
2441.75	107
2442.13	187
2442.5	103
2442.87	205
2443.25	89
2443.62	191
2444	137
2444.37	137
2444.74	195
2445.12	127
2445.49	165
2445.87	101
2446.24	157
2446.61	117
2446.99	179
2447.36	115
2447.73	173
2448.11	147
2448.48	139
2448.86	191
2449.23	113
2449.6	177
2449.98	145
2450.35	149
2450.72	171
2451.1	139
2451.47	119
2451.84	169
2452.22	165
2452.59	137
2452.97	159
2453.34	119
2453.71	165
2454.08	145
2454.46	147
2454.83	169
2455.2	131
2455.58	119
2455.95	155
2456.32	153
2456.7	165
2457.07	129
2457.44	127
2457.82	167
2458.19	157
2458.56	127
2458.93	183
2459.31	113
2459.68	143
2460.05	141
2460.43	143
2460.8	173
2461.17	101
2461.54	163
2461.92	127
2462.29	185
2462.66	113
2463.03	179
2463.41	99
2463.78	155
2464.15	145
2464.52	139
2464.9	183
2465.27	91
2465.64	177
2466.01	131
2466.39	177
2466.76	109
2467.13	161
2467.5	129
2467.88	151
2468.25	157
2468.62	121
2468.99	173
2469.37	99
2469.74	167
2470.11	129
2470.48	165
2470.85	139
2471.22	145
2471.6	133
2471.97	149
2472.34	123
2472.71	145
2473.08	161
2473.46	103
2473.83	157
2474.2	133
2474.57	137
2474.94	123
2475.32	119
2475.69	117
2476.06	149
2476.43	121
2476.8	135
2477.17	139
2477.55	99
2477.92	153
2478.29	119
2478.66	129
2479.03	133
2479.4	105
2479.77	155
2480.15	167
2480.52	125
2480.89	165
2481.26	99
2481.63	117
2482	135
2482.37	143
2482.74	105
2483.12	137
2483.49	113
2483.86	147
2484.23	133
2484.6	107
2484.97	189
2485.34	85
2485.71	153
2486.08	133
2486.46	161
2486.83	117
2487.2	97
2487.57	151
2487.94	135
2488.31	167
2488.68	79
2489.05	179
2489.42	75
2489.79	157
2490.16	127
2490.53	155
2490.9	151
2491.27	103
2491.64	153
2492.01	137
2492.38	165
2492.76	103
2493.13	161
2493.5	89
2493.87	177
2494.24	131
2494.61	113
2494.98	139
2495.35	111
2495.72	157
2496.09	135
2496.46	135
2496.83	117
2497.2	141
2497.57	89
2497.94	149
2498.31	115
2498.68	125
2499.05	141
2499.42	97
2499.79	147
2500.16	125
2500.53	131
2500.9	131
2501.27	141
2501.64	109
2502.01	143
2502.38	99
2502.75	133
2503.12	137
2503.49	107
2503.86	131
2504.23	131
2504.6	117
2504.97	155
2505.34	105
2505.7	137
2506.07	121
2506.44	93
2506.81	133
2507.18	107
2507.55	119
2507.92	117
2508.29	167
2508.66	89
2509.03	169
2509.4	111
2509.77	147
2510.14	147
2510.5	81
2510.88	177
2511.24	81
2511.61	143
2511.98	87
2512.35	161
2512.72	107
2513.09	147
2513.46	93
2513.83	135
2514.2	127
2514.56	87
2514.93	169
2515.3	91
2515.67	145
2516.04	103
2516.41	171
2516.78	127
2517.15	155
2517.51	115
2517.88	145
2518.25	131
2518.62	103
2518.99	163
2519.36	87
2519.73	149
2520.09	101
2520.46	127
2520.83	141
2521.2	135
2521.57	89
2521.94	137
2522.3	125
2522.67	141
2523.04	133
2523.41	103
2523.78	137
2524.15	117
2524.51	125
2524.88	151
2525.25	97
2525.62	107
2525.98	127
2526.35	121
2526.72	157
2527.09	111
2527.46	131
2527.83	119
2528.19	143
2528.56	113
2528.93	167
2529.3	87
2529.66	121
2530.03	141
2530.4	109
2530.77	159
2531.13	67
2531.5	141
2531.87	103
2532.24	145
2532.61	109
2532.97	127
2533.34	107
2533.71	135
2534.07	149
2534.44	109
2534.81	171
2535.18	41
2535.54	155
2535.91	105
2536.28	161
2536.65	115
2537.01	119
2537.38	107
2537.75	111
2538.11	133
2538.48	111
2538.85	151
2539.22	77
2539.58	171
2539.95	133
2540.32	123.5
2540.68	134.3
2541.05	113
2541.42	131
2541.78	135
2542.15	115
2542.52	119
2542.89	133
2543.25	91
2543.62	169
2543.99	131
2544.35	117
2544.72	125
2545.08	95
2545.45	127
2545.82	151
2546.19	107
2546.55	155
2546.92	89
2547.28	117
2547.65	135
2548.02	135
2548.38	113
2548.75	139
2549.12	113
2549.48	121
2549.85	129
2550.21	103
2550.58	169
2550.95	73
2551.31	143
2551.68	115
2552.05	151
2552.41	137
2552.78	109
2553.14	129
2553.51	127
2553.88	133
2554.24	77
2554.61	183
2554.97	75
2555.34	143
2555.71	111
2556.07	109
2556.44	133
2556.8	83
2557.17	131
2557.53	127
2557.9	145
2558.27	71
2558.63	173
2559	79
2559.36	163
2559.73	121
2560.09	105
2560.46	151
2560.82	97
2561.19	141
2561.55	111
2561.92	143
2562.29	97
2562.65	131
2563.02	99
2563.38	153
2563.75	123
2564.11	139
2564.48	139
2564.84	85
2565.21	145
2565.57	116.99
2565.94	124.867
2566.3	112.787
2566.67	129.727
2567.03	97.9243
2567.4	154.198
2567.76	123.443
2568.13	125.25
2568.49	146.432
2568.86	85.7547
2569.22	136.601
2569.59	127.98
2569.95	117.445
2570.32	147.8
2570.68	118.965
2571.05	142.582
2571.41	149.682
2571.78	111.22
2572.14	125.232
2572.51	108.822
2572.87	125.059
2573.23	123.116
2573.6	145.015
2573.96	103.883
2574.33	131.909
2574.69	105.63
2575.06	118.51
2575.42	129.374
2575.79	106.444
2576.15	150.137
2576.51	93.1945
2576.88	137.385
2577.24	115.673
2577.61	141.333
2577.97	124.218
2578.34	141.669
2578.7	122.862
2579.06	144.858
2579.43	139.52
2579.79	113.403
2580.16	156.984
2580.52	110.42
2580.88	149.619
2581.25	112.542
2581.61	147.877
2581.98	124.748
2582.34	118.395
2582.7	121.171
2583.07	134.085
2583.43	129.464
2583.8	111.651
2584.16	142.082
2584.52	112.391
2584.89	143.65
2585.25	103.85
2585.61	135.872
2585.98	125.701
2586.34	108.709
2586.7	114.171
2587.07	113.59
2587.43	124.98
2587.8	125.472
2588.16	136.55
2588.52	122.856
2588.88	154.844
2589.25	122.763
2589.61	139.1
2589.97	145.704
2590.34	115.504
2590.7	153.024
2591.06	107.803
2591.43	140.313
2591.79	125.797
2592.15	143.349
2592.52	123.674
2592.88	148.561
2593.24	112.385
2593.61	115.83
2593.97	173.561
2594.33	111.762
2594.7	170.857
2595.06	81.4736
2595.42	155.821
2595.78	124.176
2596.15	131.028
2596.51	128.656
2596.87	109.275
2597.24	113.714
2597.6	104.507
2597.96	146.195
2598.32	120.285
2598.69	150.115
2599.05	82.1662
2599.41	146.672
2599.78	141.415
2600.14	123.818
2600.5	128.348
2600.86	121.293
2600.95	119
2601.31	141
2601.68	137
2602.05	157
2602.42	119
2602.78	157
2603.15	83
2603.52	179
2603.89	129
2604.25	151
2604.62	159
2604.99	107
2605.35	153
2605.72	143
2606.09	135
2606.46	135
2606.82	125
2607.19	107
2607.56	157
2607.92	163
2608.29	135
2608.66	141
2609.03	107
2609.39	151
2609.76	141
2610.13	145
2610.49	169
2610.86	99
2611.23	155
2611.59	129
2611.96	159
2612.33	153
2612.69	133
2613.06	141
2613.43	159
2613.79	173
2614.16	115
2614.53	197
2614.89	111
2615.26	169
2615.62	153
2615.99	121
2616.36	161
2616.72	97
2617.09	145
2617.46	157
2617.82	163
2618.19	111
2618.56	189
2618.92	111
2619.29	189
2619.65	161
2620.02	151
2620.39	181
2620.75	127
2621.12	161
2621.48	145
2621.85	181
2622.22	123
2622.58	209
2622.95	115
2623.31	191
2623.68	131
2624.04	171
2624.41	183
2624.78	129
2625.14	211
2625.51	175
2625.87	197
2626.24	137
2626.6	163
2626.97	157
2627.34	201
2627.7	167
2628.07	165
2628.43	197
2628.8	159
2629.16	185
2629.53	195
2629.9	159
2630.26	171
2630.63	157
2630.99	187
2631.36	209
2631.72	175
2632.09	227
2632.45	205
2632.82	177
2633.18	207
2633.55	189
2633.91	175
2634.28	209
2634.64	161
2635.01	221
2635.37	215
2635.74	179
2636.1	237
2636.47	155
2636.83	215
2637.2	203
2637.56	223
2637.93	205
2638.29	241
2638.66	187
2639.02	255
2639.39	215
2639.75	205
2640.12	275
2640.48	171
2640.84	229
2641.21	219
2641.57	229
2641.94	195
2642.3	271
2642.67	199
2643.03	245
2643.4	239
2643.76	221
2644.13	283
2644.49	221
2644.85	277
2645.22	215
2645.58	289
2645.95	229
2646.31	279
2646.68	215
2647.04	271
2647.4	287
2647.77	231
2648.13	297
2648.5	197
2648.86	297
2649.22	215
2649.59	275
2649.95	293
2650.32	293
2650.68	277
2651.04	311
2651.41	309
2651.77	293
2652.14	345
2652.5	301
2652.86	313
2653.23	303
2653.59	317
2653.95	341
2654.32	309
2654.68	303
2655.05	333
2655.41	347
2655.77	363
2656.14	371
2656.5	357
2656.86	365
2657.23	401
2657.59	397
2657.95	389
2658.32	327
2658.68	385
2659.04	389
2659.41	377
2659.77	415
2660.13	369
2660.5	417
2660.86	383
2661.22	423
2661.59	385
2661.95	453
2662.31	373
2662.68	431
2663.04	447
2663.4	435
2663.76	491
2664.13	387
2664.49	535
2664.85	475
2665.22	445
2665.58	423
2665.94	535
2666.3	443
2666.67	479
2667.03	505
2667.39	491
2667.76	539
2668.12	413
2668.48	539
2668.84	465
2669.21	499
2669.57	543
2669.93	505
2670.29	493
2670.66	523
2671.02	555
2671.38	453
2671.74	563
2672.11	487
2672.47	573
2672.83	545
2673.19	575
2673.56	525
2673.92	509
2674.28	539
2674.64	547
2675	557
2675.37	533
2675.73	551
2676.09	527
2676.45	581
2676.81	557
2677.18	531
2677.54	553
2677.9	509
2678.26	539
2678.62	539
2678.99	521
2679.35	523
2679.71	457
2680.07	537
2680.43	521
2680.8	499
2681.16	499
2681.52	487
2681.88	469
2682.24	491
2682.6	483
2682.97	515
2683.33	559
2683.69	475
2684.05	465
2684.41	457
2684.77	481
2685.13	461
2685.5	465
2685.86	455
2686.22	479
2686.58	515
2686.94	423
2687.3	509
2687.66	399
2688.03	469
2688.39	399
2688.75	431
2689.11	433
2689.47	441
2689.83	433
2690.19	387
2690.55	445
2690.91	353
2691.28	447
2691.64	357
2692	423
2692.36	373
2692.72	389
2693.08	413
2693.44	361
2693.8	383
2694.16	335
2694.52	387
2694.88	333
2695.24	393
2695.61	291
2695.97	405
2696.33	321
2696.69	337
2697.05	341
2697.41	277
2697.77	337
2698.13	325
2698.49	361
2698.85	293
2699.21	335
2699.57	289
2699.93	345
2700.29	285
2700.65	287
2701.01	313
2701.37	293
2701.73	309
2702.09	259
2702.45	279
2702.81	297
2703.18	239
2703.53	255
2703.89	287
2704.25	237
2704.62	271
2704.98	283
2705.33	245
2705.69	279
2706.06	283
2706.42	259
2706.78	251
2707.13	219
2707.49	241
2707.85	255
2708.22	239
2708.57	257
2708.93	231
2709.29	217
2709.65	221
2710.01	261
2710.37	205
2710.73	263
2711.09	181
2711.45	259
2711.81	225
2712.17	201
2712.53	210
2712.89	185
2713.25	229
2713.61	187
2713.97	197
2714.33	187
2714.69	184.5
2715.05	167
2715.41	183.3
2715.76	215
2716.12	163
2716.48	182.333
2716.84	169
2717.2	178.067
2717.56	167
2717.92	209
2718.28	189
2718.64	219
2719	149
2719.35	221
2719.71	193
2720.07	181
2720.43	185.4
2720.79	131
2721.15	201
2721.51	151
2721.87	197
2722.23	171
2722.59	173
2722.94	129
2723.3	213
2723.66	189
2724.02	153
2724.38	205
2724.74	143
2725.1	197
2725.46	157
2725.81	159
2726.17	185
2726.53	151
2726.89	147
2727.25	181
2727.61	157
2727.96	169
2728.32	179.48
2728.68	201.4
2729.04	189
2729.4	159
2729.75	149
2730.11	207
2730.47	133
2730.83	133
2731.19	173
2731.55	165
2731.91	179
2732.26	133
2732.62	155
2732.98	149
2733.34	159
2733.69	157
2734.05	185
2734.41	135
2734.77	127
2735.13	167
2735.48	137
2735.84	203
2736.2	95
2736.56	199
2736.91	157
2737.27	189
2737.63	147
2737.99	181
2738.35	121
2738.7	139
2739.06	159
2739.42	113
2739.78	193
2740.13	85
2740.49	173
2740.85	123
2741.21	167
2741.56	141
2741.92	147
2742.28	153
2742.64	133
2742.99	153
2743.35	129
2743.71	175
2744.06	79
2744.42	173
2744.78	123
2745.14	175
2745.49	123
2745.85	135
2746.21	147
2746.57	153
2746.92	157
2747.28	119
2747.64	169
2747.99	85
2748.35	165
2748.71	139
2749.06	151
2749.42	143
2749.78	129
2750.13	165
2750.49	137
2750.85	129
2751.2	141
2751.56	119
2751.92	115
2752.27	147
2752.63	139
2752.99	125
2753.34	137
2753.7	107
2754.06	153
2754.41	135
2754.77	99
2755.13	165
2755.48	107
2755.84	157
2756.2	135
2756.55	147
2756.91	143
2757.26	135
2757.62	129
2757.98	139
2758.33	173
2758.69	79
2759.04	197
2759.4	79
2759.76	177
2760.11	131
2760.47	161
2760.83	155
2761.18	129
2761.54	107
2761.89	145
2762.25	161
2762.61	95
2762.96	203
2763.32	79
2763.67	163
2764.03	99
2764.38	157
2764.74	131
2765.1	113
2765.45	139
2765.81	143
2766.16	135
2766.52	83
2766.88	163
2767.23	105
2767.59	165
2767.94	121
2768.3	137
2768.65	149
2769.01	101
2769.36	141
2769.72	143
2770.07	155
2770.43	111
2770.78	145
2771.14	93
2771.49	141
2771.85	115
2772.21	143
2772.56	155
2772.92	115
2773.27	137.667
2773.63	138.167
2773.98	129.367
2774.34	145
2774.69	111
2775.05	121
2775.4	139
2775.76	115
2776.11	127
2776.47	119
2776.82	103
2777.18	139
2777.53	155
2777.89	121
2778.24	165
2778.59	89
2778.95	137
2779.3	139
2779.66	101
2780.01	155
2780.37	125
2780.72	127
2781.08	119
2781.43	167
2781.79	105
2782.14	169
2782.49	107
2782.85	147
2783.2	127
2783.56	101
2783.91	141
2784.27	99
2784.62	119
2784.98	99
2785.33	167
2785.68	97
2786.04	177
2786.39	89
2786.75	149
2787.1	119
2787.46	105
2787.81	167
2788.16	99
2788.52	139
2788.87	105
2789.22	167
2789.58	107
2789.93	173
2790.29	85
2790.64	141
2790.99	125
2791.35	117
2791.7	177
2792.06	99
2792.41	151
2792.76	93
2793.12	141
2793.47	141
2793.82	129
2794.18	79
2794.53	131
2794.88	125
2795.24	117
2795.59	139
2795.95	89
2796.3	127
2796.65	121
2797.01	115
2797.36	135
2797.71	105
2798.07	115
2798.42	145
2798.77	139
2799.13	131
2799.48	109
2799.83	119
2800.19	115
2800.54	133
2800.89	115
2801.24	175
2801.6	101
2801.95	119
2802.3	155
2802.66	121
2803.01	153
2803.36	81
2803.72	143
2804.07	119
2804.42	149
2804.77	105
2805.13	153
2805.48	87
2805.83	133
2806.19	119
2806.54	127
2806.89	181
2807.24	67
2807.6	139
2807.95	115
2808.3	159
2808.65	109
2809.01	159
2809.36	85
2809.71	147
2810.06	151
2810.42	123
2810.77	153
2811.12	41
2811.47	167
2811.83	109
2812.18	147
2812.53	113
2812.88	139
2813.24	107
2813.59	145
2813.94	121
2814.29	93
2814.64	143
2815	67
2815.35	151
2815.7	127
2816.05	137
2816.4	117
2816.76	115
2817.11	117
2817.46	139
2817.81	111
2818.16	129
2818.52	145
2818.87	93
2819.22	151
2819.57	145
2819.92	127
2820.28	151
2820.63	91
2820.98	115
2821.33	157
2821.68	115
2822.03	133
2822.39	121
2822.74	121
2823.09	145
2823.44	143
2823.79	109
2824.14	147
2824.49	87
2824.85	167
2825.2	135
2825.55	93
2825.9	147
2826.25	93
2826.6	141
2826.95	99
2827.31	149
2827.66	99
2828.01	151
2828.36	101
2828.71	135
2829.06	131
2829.41	87
2829.76	179
2830.11	85
2830.46	149
2830.82	89
2831.17	153
2831.52	99
2831.87	159
2832.22	101
2832.57	123
2832.92	139
2833.27	85
2833.62	175
2833.97	61
2834.32	163
2834.68	101
2835.03	135
2835.38	145
2835.73	119
2836.08	127
2836.43	147
2836.78	119
2837.13	103
2837.48	167
2837.83	83
2838.18	143
2838.53	97
2838.88	115
2839.23	135
2839.58	103
2839.93	121
2840.28	147
2840.63	121
2840.98	121
2841.33	131
2841.68	95
2842.03	159
2842.38	119
2842.73	121
2843.08	127
2843.43	99
2843.78	123
2844.13	125
2844.48	107
2844.83	145
2845.18	115
2845.53	121
2845.88	123
2846.23	121
2846.58	103
2846.93	139
2847.28	87
2847.63	133
2847.98	137
2848.33	87
2848.68	157
2849.03	75
2849.38	157
2849.73	109
2850.08	127
2850.43	115
2850.78	117
2851.13	111
2851.48	125
2851.83	137
2852.18	89
2852.53	179
2852.88	53
2853.23	141
2853.57	101
2853.92	123
2854.27	131
2854.62	125
2854.97	111
2855.32	115
2855.67	143
2856.02	85
2856.37	151
2856.72	49
2857.07	131
2857.42	103
2857.76	117
2858.11	137
2858.46	111
2858.81	103
2859.16	113
2859.51	149
2859.86	111
2860.21	163
2860.56	65
2860.91	157
2861.25	135
2861.6	137
2861.95	137
2862.3	93
2862.65	129
2863	123
2863.35	129
2863.69	99
2864.04	117
2864.39	65
2864.74	157
2865.09	97
2865.44	123
2865.78	115
2866.13	95
2866.48	127
2866.83	121
2867.18	123
2867.53	149
2867.88	111
2868.22	103
2868.57	137
2868.92	121
2869.27	137
2869.62	115
2869.96	103
2870.31	147
2870.66	141
2871.01	93
2871.36	153
2871.7	75
2872.05	119
2872.4	133
2872.75	135
2873.1	137
2873.44	95
2873.79	113
2874.14	119
2874.49	169
2874.84	67
2875.18	155
2875.53	71
2875.88	147
2876.23	121
2876.57	119
2876.92	119
2877.27	85
2877.62	125
2877.97	115
2878.31	139
2878.66	75
2879.01	171
2879.36	81
2879.7	145
2880.05	117
2880.4	137
2880.74	141
2881.09	95
2881.44	131
2881.79	117
2882.13	135
2882.48	101
2882.83	145
2883.18	89
2883.52	153
2883.87	111
2884.22	123
2884.56	145
2884.91	103
2885.26	137
2885.61	123
2885.95	107
2886.3	109
2886.65	107
2886.99	117
2887.34	147
2887.69	97
2888.03	113
2888.38	133
2888.73	101
2889.07	125
2889.42	119
2889.77	101
2890.11	147
2890.46	79
2890.81	133
2891.15	123
2891.5	99
2891.85	133
2892.19	121
2892.54	121
2892.89	111
2893.23	141
2893.58	103
2893.93	165
2894.27	89
2894.62	151
2894.96	131
2895.31	99
2895.66	129
2896	73
2896.35	128.8
2896.7	98.9559
2897.04	138.76
2897.39	97.9572
2897.73	144.196
2898.08	70.2981
2898.43	136.763
2898.77	114.258
2899.12	108.215
2899.46	138.545
2899.81	95.5237
2900.16	126.288
2900.5	85
2900.85	127.768
2901.19	123.68
2901.54	148.711
2901.88	79.4001
2902.23	157.597
2902.58	105.103
2902.92	106.524
2903.27	134.562
2903.61	86.7449
2903.96	140.448
2904.31	110.193
2904.65	132.868
2905	124.783
2905.34	126.057
2905.69	98.3303
2906.03	144.986
2906.38	122.908
2906.72	104.183
2907.07	135.832
2907.42	99.8443
2907.76	121.214
2908.11	118.885
2908.45	115.187
2908.8	125.46
2909.14	110.379
2909.49	99.17
2909.83	108.28
2910.18	125.769
2910.52	108.284
2910.87	111.375
2911.21	124.698
2911.56	115.001
2911.9	121.996
2912.25	109.93
2912.59	134.786
2912.94	101.213
2913.28	110.455
2913.63	136.555
2913.97	104.875
2914.32	111.392
2914.66	105.682
2915.01	137.389
2915.35	130.697
2915.7	138.518
2916.04	122.5
2916.39	122.209
2916.73	110.137
2917.08	99.4788
2917.42	123.074
2917.77	122.537
2918.11	131.754
2918.46	98.812
2918.8	127.35
2919.15	114.568
2919.49	110.011
2919.83	112.833
2920.18	122.081
2920.52	117.492
2920.87	118.65
2921.21	109.283
2921.56	122.469
2921.9	119.652
2922.24	104.826
2922.59	123.634
2922.93	103.103
2923.28	109.647
2923.62	109.279
2923.97	122.546
2924.31	122.736
2924.65	119.937
2925	99.8069
2925.34	138.727
2925.69	133.919
2926.03	115.709
2926.38	125.873
2926.72	103.359
2927.06	121.144
2927.41	106.506
2927.75	125.282
2928.09	119.635
2928.44	139.038
2928.78	93.759
2929.13	145.168
2929.47	99.0867
2929.81	102.443
2930.16	136.61
2930.5	90.1858
2930.79	149
2931.14	97
2931.49	131
2931.84	117
2932.19	133
2932.54	79
2932.88	127
2933.23	133
2933.58	113
2933.93	149
2934.28	83
2934.63	129
2934.97	107
2935.32	137
2935.67	129
2936.02	109
2936.37	85
2936.71	135
2937.06	123
2937.41	133
2937.76	129
2938.11	91
2938.46	125
2938.8	129
2939.15	107
2939.5	139
2939.85	103
2940.19	109
2940.54	151
2940.89	109
2941.24	133
2941.59	109
2941.93	95
2942.28	113
2942.63	125
2942.98	113
2943.32	159
2943.67	67
2944.02	119
2944.37	123
2944.72	105
2945.06	127
2945.41	99
2945.76	111
2946.11	125
2946.45	149
2946.8	95
2947.15	163
2947.49	75
2947.84	123
2948.19	131
2948.54	129
2948.88	143
2949.23	63
2949.58	139
2949.93	101
2950.27	133
2950.62	63
2950.97	167
2951.31	83
2951.66	159
2952.01	115
2952.35	89
2952.7	155
2953.05	69
2953.4	135
2953.74	105
2954.09	145
2954.44	87
2954.78	143
2955.13	91
2955.48	137
2955.82	121
2956.17	115
2956.52	161
2956.86	79
2957.21	141
2957.56	129
2957.9	143
2958.25	111
2958.6	127
2958.94	103
2959.29	151
2959.64	121
2959.98	121
2960.33	131
2960.68	75
2961.02	139
2961.37	117
2961.72	115
2962.06	111
2962.41	99
2962.76	119
2963.1	141
2963.45	111
2963.79	105
2964.14	125
2964.49	101
2964.83	135
2965.18	117
2965.52	95
2965.87	149
2966.22	89
2966.56	121
2966.91	133
2967.25	93
2967.6	129
2967.95	121
2968.29	137
2968.64	121
2968.98	139
2969.33	99
2969.68	151
2970.02	85
2970.37	129
2970.71	129
2971.06	83
2971.4	143
2971.75	69
2972.1	123
2972.44	105
2972.79	145
2973.13	97
2973.48	147
2973.82	89
2974.17	143
2974.51	127
2974.86	73
2975.21	149
2975.55	89
2975.9	137
2976.24	99
2976.59	145
2976.93	107
2977.28	145
2977.62	97
2977.97	161
2978.31	117
2978.66	87
2979	155
2979.35	77
2979.69	145
2980.04	75
2980.38	157
2980.73	109
2981.07	129
2981.42	93
2981.76	139
2982.11	145
2982.45	97
2982.8	159
2983.14	61
2983.49	157
2983.83	85
2984.18	125
2984.52	131
2984.87	105
2985.21	123
2985.56	115
2985.9	121
2986.25	101
2986.59	147
2986.94	85
2987.28	165
2987.62	93
2987.97	125
2988.31	139
2988.66	93
2989	109
2989.35	121
2989.69	129
2990.03	129
2990.38	113
2990.72	99
2991.07	115.8
2991.41	115
2991.76	123
2992.1	143
2992.44	97
2992.79	99
2993.13	131
2993.48	109
2993.82	147
2994.17	101
2994.51	127
2994.85	135
2995.2	131
2995.54	115
2995.89	135
2996.23	99
2996.57	119
2996.92	129
2997.26	101
2997.6	165
2997.95	75
2998.29	137
2998.64	105
2998.98	125
2999.32	113
2999.67	133
