#Acq. time (s)=	30
#Accumulations=	1
#Range (cm-¹)=	1050...3000 (30 s) 
#Windows=	6
#Auto scanning=	Off
#Autofocus=	Off
#AutoExposure=	Off
#Spike filter=	Off
#Delay time (s)=	0
#Binning=	1
#Readout mode=	Signal
#DeNoise=	Off
#ICS correction=	Off
#Dark correction=	Off
#Inst. Process=	Off
#Detector Gain=	High Sensitivity
#Detector ADC=	45 kHz       
#Detector temperature (°C)=	-60.1
#Instrument=	LabRAM
#Detector=	Syncerity
#Objective=	x50LWD
#Grating=	1800
#Filter=	25%
#Laser (nm)=	532
#Hole=	100
#E-Cal_Neon=	0
#StageXY=	Marzhauser
#StageZ=	Marzhauser
#X (µm)=	0
#Y (µm)=	0
#Z (µm)=	-1678.85
#Spectral res.(cm-¹)=	1.9
#Full time(mm:ss)=	3:09
#AC=	Not calibrated
#Project=	
#Sample=	
#Site=	
#Title=	Spot 1 500K
#Remark=	
#Date=	19.02.2026 12:20
#Acquired=	19.02.2026 12:20:17
#Edit:Spike=	19.02.2026 12:21:55
#Edit:Spike=	19.02.2026 12:21:56
#Edit:Spike=	19.02.2026 12:23:52
#AxisType[0]=Intens
#AxisUnit[0]=Cnt
#AxisType[1]=Spectr
#AxisUnit[1]=1/cm
1050.13	139
1050.59	97
1051.05	113
1051.51	135
1051.97	117
1052.44	103
1052.9	125
1053.36	87
1053.82	119
1054.28	141
1054.74	103
1055.2	153
1055.67	75
1056.13	123
1056.59	115
1057.05	123
1057.51	115
1057.97	101
1058.43	109
1058.89	129
1059.36	133
1059.82	59
1060.28	155
1060.74	73
1061.2	155
1061.66	105
1062.12	147
1062.58	139
1063.04	93
1063.5	119
1063.96	111
1064.43	123
1064.89	55
1065.35	161
1065.81	85
1066.27	161
1066.73	91
1067.19	131
1067.65	133
1068.11	101
1068.57	127
1069.03	121
1069.49	135
1069.95	107
1070.41	133
1070.87	101
1071.33	139
1071.79	121
1072.25	123
1072.71	149
1073.17	101
1073.63	123
1074.09	137
1074.55	119
1075.01	127
1075.47	101
1075.93	125
1076.39	127
1076.85	97
1077.31	133
1077.77	137
1078.23	123
1078.69	93
1079.15	141
1079.61	115
1080.07	165
1080.53	83
1080.99	125
1081.45	121
1081.91	105
1082.37	135
1082.83	101
1083.29	115
1083.75	103
1084.21	129
1084.66	93
1085.12	173
1085.58	69
1086.04	145
1086.5	121
1086.96	135
1087.42	137
1087.88	85
1088.34	147
1088.8	93
1089.25	145
1089.71	99
1090.17	157
1090.63	43
1091.09	153
1091.55	129
1092.01	105
1092.47	143
1092.92	91
1093.38	143
1093.84	105
1094.3	133
1094.76	113
1095.22	145
1095.68	93
1096.13	143
1096.59	125
1097.05	111
1097.51	149
1097.97	93
1098.43	149
1098.88	99
1099.34	125
1099.8	123
1100.26	97
1100.72	79
1101.17	121
1101.63	137
1102.09	127
1102.55	109
1103.01	127
1103.46	127
1103.92	129
1104.38	107
1104.84	169
1105.29	75
1105.75	123
1106.21	127
1106.67	101
1107.12	167
1107.58	75
1108.04	145
1108.5	127
1108.95	145
1109.41	103
1109.87	157
1110.33	87
1110.78	131
1111.24	135
1111.7	101
1112.16	163
1112.61	69
1113.07	149
1113.53	117
1113.98	161
1114.44	87
1114.9	133
1115.35	81
1115.81	147
1116.27	129
1116.72	111
1117.18	153
1117.64	69
1118.1	159
1118.55	107
1119.01	153
1119.47	101
1119.92	119
1120.38	105
1120.84	135
1121.29	143
1121.75	97
1122.2	135
1122.66	63
1123.12	147
1123.57	123
1124.03	127
1124.49	119
1124.94	81
1125.4	147
1125.86	137
1126.31	111
1126.77	131
1127.22	127
1127.68	133
1128.14	127
1128.59	145
1129.05	129
1129.5	133
1129.96	97
1130.41	125
1130.87	131
1131.33	83
1131.78	163
1132.24	73
1132.69	141
1133.15	111
1133.61	131
1134.06	101
1134.52	139
1134.97	115
1135.43	121
1135.88	131
1136.34	87
1136.79	175
1137.25	59
1137.7	137
1138.16	99
1138.61	149
1139.07	117
1139.52	113
1139.98	97
1140.43	153
1140.89	129
1141.34	93
1141.8	169
1142.25	85
1142.71	175
1143.16	95
1143.62	137
1144.07	133
1144.53	95
1144.98	101
1145.44	111
1145.89	111
1146.35	109
1146.8	115
1147.26	97
1147.71	139
1148.16	91
1148.62	125
1149.07	149
1149.53	97
1149.98	119
1150.44	133
1150.89	107
1151.35	151
1151.8	111
1152.25	137
1152.71	113
1153.16	125
1153.62	113
1154.07	179
1154.52	97
1154.98	115
1155.43	147
1155.89	101
1156.34	179
1156.79	47
1157.25	151
1157.7	109
1158.16	141
1158.61	117
1159.06	129
1159.52	107
1159.97	99
1160.42	149
1160.88	95
1161.33	165
1161.78	55
1162.24	167
1162.69	101
1163.14	145
1163.6	143
1164.05	123
1164.5	129
1164.96	123
1165.41	121
1165.86	107
1166.32	139
1166.77	87
1167.22	161
1167.68	113
1168.13	139
1168.58	117
1169.04	105
1169.49	127
1169.94	121
1170.39	131
1170.85	127
1171.3	131
1171.75	99
1172.2	155
1172.66	115
1173.11	115
1173.56	115
1174.01	91
1174.47	141
1174.92	135
1175.37	109
1175.82	151
1176.28	83
1176.73	125
1177.18	137
1177.63	133
1178.09	121
1178.54	125
1178.99	105
1179.44	123
1179.89	159
1180.35	91
1180.8	171
1181.25	67
1181.7	155
1182.15	119
1182.61	121
1183.06	121
1183.51	83
1183.96	117
1184.41	123
1184.87	151
1185.32	71
1185.77	185
1186.22	87
1186.67	145
1187.12	99
1187.58	107
1188.03	171
1188.48	93
1188.93	127
1189.38	133
1189.83	141
1190.28	85
1190.73	169
1191.19	87
1191.64	157
1192.09	101
1192.54	125
1192.99	135
1193.44	89
1193.89	143
1194.34	123
1194.8	131
1195.25	113
1195.7	135
1196.15	103
1196.6	139
1197.05	101
1197.5	131
1197.95	157
1198.4	105
1198.85	125
1199.3	125
1199.75	105
1200.2	135
1200.66	89
1201.11	131
1201.56	131
1202.01	89
1202.46	121
1202.91	117
1203.36	121
1203.81	111
1204.26	157
1204.71	109
1205.16	175
1205.61	79
1206.06	155
1206.51	125
1206.96	105
1207.41	171
1207.86	81
1208.31	151
1208.76	105
1209.21	147
1209.66	81
1210.11	149
1210.56	81
1211.01	151
1211.46	125
1211.91	83
1212.36	169
1212.81	79
1213.26	127
1213.71	93
1214.16	137
1214.61	105
1215.05	123
1215.51	101
1215.95	127
1216.4	131
1216.85	123
1217.3	143
1217.75	83
1218.2	141
1218.65	97
1219.1	121
1219.55	137
1220	125
1220.45	103
1220.9	159
1221.34	121
1221.79	113
1222.24	143
1222.69	101
1223.14	139
1223.59	105
1224.04	117
1224.49	151
1224.94	89
1225.38	119
1225.83	137
1226.28	109
1226.73	137
1227.18	85
1227.63	123
1228.07	115
1228.52	135
1228.97	99
1229.42	163
1229.87	91
1230.32	127
1230.76	145
1231.21	101
1231.66	161
1232.11	77
1232.56	147
1233.01	113
1233.45	163
1233.9	93
1234.35	127
1234.8	113
1235.25	121
1235.69	159
1236.14	105
1236.59	171
1237.04	37
1237.49	143
1237.93	107
1238.38	151
1238.83	111
1239.28	99
1239.72	127
1240.17	115
1240.62	113
1241.07	103
1241.51	135
1241.96	69
1242.41	155
1242.86	127
1243.3	135
1243.75	117
1244.2	117
1244.65	133
1245.09	137
1245.54	127
1245.99	131
1246.44	127
1246.88	107
1247.33	147
1247.78	137
1248.22	117
1248.67	131
1249.12	93
1249.56	131
1250.01	147
1250.46	119
1250.9	151
1251.35	87
1251.8	125
1252.24	121
1252.69	133
1253.14	103
1253.58	125
1254.03	93
1254.48	143
1254.92	123
1255.37	89
1255.82	163
1256.26	67
1256.71	161
1257.15	97
1257.6	149
1258.05	121
1258.49	129
1258.94	115
1259.39	127
1259.83	159
1260.28	75
1260.72	193
1261.17	77
1261.62	149
1262.06	101
1262.51	135
1262.95	145
1263.4	137
1263.85	129
1264.29	137
1264.74	129
1265.18	105
1265.63	139
1266.07	89
1266.52	135
1266.97	97
1267.41	145
1267.86	133
1268.3	101
1268.75	127
1269.19	131
1269.64	111
1270.08	131
1270.53	99
1270.97	121
1271.42	139
1271.86	105
1272.31	121
1272.76	141
1273.2	117
1273.64	93
1274.09	145
1274.53	119
1274.98	145
1275.42	91
1275.87	143
1276.31	129
1276.76	105
1277.2	121
1277.65	149
1278.09	123
1278.54	107
1278.98	157
1279.43	113
1279.87	165
1280.32	65
1280.76	147
1281.21	107
1281.65	131
1282.09	129
1282.54	89
1282.98	119
1283.43	107
1283.87	133
1284.32	93
1284.76	147
1285.21	61
1285.65	157
1286.09	123
1286.54	129
1286.98	145
1287.42	119
1287.87	143
1288.31	117
1288.76	155
1289.2	129
1289.64	135
1290.09	85
1290.53	163
1290.98	139
1291.42	131
1291.86	129
1292.31	109
1292.75	135
1293.19	105
1293.64	117
1294.08	139
1294.53	105
1294.97	111
1295.41	151
1295.85	111
1296.3	123
1296.74	127
1297.19	101
1297.63	137
1298.07	137
1298.51	119
1298.96	161
1299.4	103
1299.84	117
1300.29	133
1300.73	119
1301.17	155
1301.62	103
1302.06	133
1302.5	119
1302.94	145
1303.39	87
1303.83	179
1304.27	73
1304.72	147
1305.16	129
1305.6	125
1306.04	155
1306.49	69
1306.93	161
1307.37	119
1307.81	155
1308.26	97
1308.7	157
1309.14	83
1309.58	147
1310.03	125
1310.47	111
1310.91	165
1311.35	71
1311.8	173
1312.24	107
1312.68	137
1313.12	121
1313.56	143
1314	131
1314.45	149
1314.89	129
1315.33	133
1315.77	175
1316.22	83
1316.66	149
1317.1	137
1317.54	157
1317.98	123
1318.43	123
1318.87	125
1319.31	147
1319.75	125
1320.19	147
1320.63	125
1321.07	117
1321.51	155
1321.96	129
1322.4	117
1322.84	135
1323.28	93
1323.72	125
1324.16	149
1324.6	107
1325.05	155
1325.49	115
1325.93	135
1326.37	137
1326.81	163
1327.25	99
1327.69	157
1328.13	97
1328.57	145
1329.02	151
1329.45	105
1329.9	183
1330.34	97
1330.78	157
1331.22	113
1331.66	157
1332.1	141
1332.54	155
1332.98	127
1333.42	149
1333.86	143
1334.3	95
1334.74	185
1335.18	93
1335.62	165
1336.07	95
1336.5	139
1336.95	131
1337.39	127
1337.83	111
1338.27	141
1338.71	127
1339.15	121
1339.59	153
1340.03	97
1340.47	169
1340.91	115
1341.35	139
1341.79	169
1342.23	95
1342.67	121
1343.11	155
1343.55	137
1343.99	153
1344.43	123
1344.86	129
1345.31	147
1345.74	123
1346.18	127
1346.62	159
1347.06	125
1347.5	95
1347.94	129
1348.38	115
1348.82	171
1349.26	83
1349.7	139
1350.14	123
1350.58	125
1351.02	127
1351.46	143
1351.9	109
1352.33	119
1352.77	145
1353.21	103
1353.65	175
1354.09	91
1354.53	161
1354.97	135
1355.41	145
1355.85	145
1356.29	119
1356.72	129
1357.16	121
1357.6	145
1358.04	115
1358.48	179
1358.92	73
1359.36	163
1359.79	111
1360.23	125
1360.67	121
1361.11	99
1361.55	135
1361.99	101
1362.43	139
1362.87	99
1363.3	127
1363.74	73
1364.18	165
1364.62	115
1365.06	115
1365.49	155
1365.93	109
1366.37	149
1366.81	149
1367.25	129
1367.68	153
1368.12	115
1368.56	117
1369	147
1369.44	141
1369.87	119
1370.31	111
1370.75	113
1371.19	111
1371.62	153
1372.06	103
1372.5	165
1372.94	87
1373.37	139
1373.81	145
1374.25	123
1374.69	125
1375.12	95
1375.56	113
1376	115
1376.44	145
1376.87	97
1377.31	177
1377.75	87
1378.19	147
1378.62	121
1379.06	111
1379.5	145
1379.93	75
1380.37	137
1380.81	133
1381.25	151
1381.68	89
1382.12	159
1382.56	87
1382.99	159
1383.43	107
1383.87	135
1384.3	159
1384.74	81
1385.18	147
1385.61	101
1386.05	151
1386.49	87
1386.92	139
1387.36	83
1387.8	141
1388.23	105
1388.67	113
1389.1	143
1389.54	73
1389.98	145
1390.41	111
1390.85	119
1391.29	109
1391.72	121
1392.16	123
1392.59	137
1393.03	113
1393.47	131
1393.9	137
1394.34	127
1394.77	159
1395.21	137
1395.65	131
1396.08	145
1396.52	97
1396.95	129
1397.39	143
1397.82	85
1398.26	147
1398.7	81
1399.13	123
1399.57	117
1400	151
1400.44	109
1400.87	131
1401.31	97
1401.74	131
1402.18	125
1402.62	77
1403.05	159
1403.49	79
1403.92	157
1404.36	103
1404.79	127
1405.23	115
1405.66	141
1406.1	93
1406.53	147
1406.97	117
1407.4	83
1407.84	151
1408.27	67
1408.71	153
1409.14	95
1409.58	149
1410.01	119
1410.45	125
1410.88	109
1411.31	137
1411.75	135
1412.18	105
1412.62	153
1413.05	81
1413.49	159
1413.92	89
1414.36	161
1414.79	133
1415.23	97
1415.66	105
1416.1	137
1416.53	111
1416.96	113
1417.4	125
1417.83	99
1418.27	153
1418.7	121
1419.13	95
1419.57	143
1420	99
1420.44	115
1420.87	131
1421.3	103
1421.74	155
1422.17	95
1422.61	131
1423.04	107
1423.47	141
1423.91	119
1424.34	145
1424.77	101
1425.21	103
1425.64	141
1426.07	83
1426.51	171
1426.94	59
1427.38	137
1427.81	117
1428.24	123
1428.68	113
1429.11	121
1429.54	99
1429.98	117
1430.41	137
1430.84	99
1431.28	145
1431.71	47
1432.14	157
1432.57	101
1433.01	147
1433.44	123
1433.87	121
1434.31	123
1434.74	137
1435.17	125
1435.61	109
1436.04	149
1436.47	51
1436.9	155
1437.34	109
1437.77	141
1438.2	113
1438.63	115
1439.07	117
1439.5	133
1439.93	121
1440.36	121
1440.8	117
1441.23	81
1441.66	127
1442.09	129
1442.53	97
1442.96	117
1443.39	93
1443.82	135
1444.26	131
1444.69	107
1445.12	163
1445.55	101
1445.98	145
1446.42	145
1446.85	129
1447.28	121
1447.71	101
1448.14	109
1448.57	113
1449.01	151
1449.44	79
1449.87	165
1450.3	77
1450.73	149
1451.17	119
1451.6	115
1452.03	117
1452.46	73
1452.89	125
1453.32	103
1453.76	141
1454.19	73
1454.62	165
1455.05	83
1455.48	157
1455.91	95
1456.34	127
1456.77	125
1457.21	69
1457.64	119
1458.07	99
1458.5	129.088
1458.93	89.3374
1459.36	157.907
1459.79	76.8117
1460.22	156.394
1460.65	91.7644
1461.08	121.127
1461.52	141.448
1461.95	84.4237
1462.38	143.779
1462.81	106.673
1463.24	111.305
1463.67	107.968
1464.1	107.231
1464.53	116.183
1464.96	137.277
1465.39	114.364
1465.82	124.639
1466.25	130.428
1466.68	108.758
1467.11	125.775
1467.54	121.148
1467.98	121.313
1468.41	149.515
1468.84	90.4383
1469.27	129.487
1469.7	120.583
1470.13	100.618
1470.56	137.543
1470.99	124.457
1471.42	104.829
1471.85	121.394
1472.28	118.246
1472.71	114.196
1473.14	145.837
1473.57	104.274
1474	128.326
1474.43	115.719
1474.86	104.349
1475.29	140.31
1475.72	113.045
1476.15	113.697
1476.58	133.119
1477.01	118.867
1477.44	125.612
1477.87	141.488
1478.3	116.876
1478.72	132.817
1479.15	107.365
1479.58	99.7353
1480.01	135.79
1480.44	108.474
1480.87	112.325
1481.3	120.176
1481.73	105.822
1482.16	136.176
1482.59	124.255
1483.02	111.241
1483.45	126.57
1483.88	109.003
1484.31	112.852
1484.74	130.878
1485.17	105.475
1485.59	113.555
1486.02	114.607
1486.45	114.272
1486.88	140.771
1487.31	120.112
1487.74	112.084
1488.17	128.66
1488.6	110.081
1489.02	117.718
1489.45	126.52
1489.88	104.087
1490.31	117.269
1490.74	107.119
1491.17	102.171
1491.6	128.43
1492.03	125.045
1492.45	132.021
1492.88	183.246
1493.31	121.212
1493.74	123.24
1494.17	118.96
1494.6	120.513
1495.02	127.308
1495.45	114.409
1495.88	117.971
1496.31	132.277
1496.74	106.566
1497.17	110.063
1497.59	132.39
1498.02	122.217
1498.45	125.269
1498.88	131.247
1499.31	130.43
1499.73	139.136
1500.16	129.12
1500.59	115.471
1501.02	141.772
1501.45	119.685
1501.87	120.121
1502.13	133
1502.56	95
1502.99	121
1503.43	107
1503.86	145
1504.29	105
1504.72	175
1505.16	61
1505.59	167
1506.02	127
1506.46	147
1506.89	153
1507.32	87
1507.75	127
1508.19	91
1508.62	153
1509.05	103
1509.49	159
1509.92	65
1510.35	153
1510.78	119
1511.21	135
1511.65	161
1512.08	67
1512.51	137
1512.94	107
1513.38	133
1513.81	109
1514.24	121
1514.67	83
1515.11	133
1515.54	131
1515.97	131
1516.4	155
1516.83	115
1517.27	125
1517.7	147
1518.13	127
1518.56	145
1518.99	95
1519.42	131
1519.86	149
1520.29	115
1520.72	131
1521.15	97
1521.58	115
1522.01	131
1522.45	141
1522.88	97
1523.31	151
1523.74	101
1524.17	115
1524.6	111
1525.04	137
1525.47	115
1525.9	91
1526.33	107
1526.76	123
1527.19	147
1527.62	93
1528.05	161
1528.49	69
1528.92	151
1529.35	125
1529.78	125
1530.21	137
1530.64	97
1531.07	139
1531.5	147
1531.93	161
1532.37	61
1532.8	189
1533.23	77
1533.66	169
1534.09	117
1534.52	119
1534.95	149
1535.38	87
1535.81	141
1536.24	99
1536.67	151
1537.1	75
1537.53	145
1537.96	97
1538.39	149
1538.82	93
1539.26	125
1539.68	163
1540.12	95
1540.55	143
1540.98	119
1541.41	135
1541.84	131
1542.27	103
1542.7	115
1543.13	131
1543.56	109
1543.99	117
1544.42	137
1544.85	115
1545.28	137
1545.71	131
1546.14	129
1546.57	159
1547	87
1547.43	129
1547.86	139
1548.29	109
1548.72	131
1549.14	129
1549.57	119
1550.01	103
1550.43	141
1550.86	91
1551.29	163
1551.72	71
1552.15	147
1552.58	133
1553.01	123
1553.44	149
1553.87	107
1554.3	133
1554.73	125
1555.16	157
1555.59	117
1556.01	177
1556.44	69
1556.87	175
1557.3	113
1557.73	141
1558.16	159
1558.59	93
1559.02	157
1559.45	113
1559.88	169
1560.3	105
1560.73	169
1561.16	79
1561.59	169
1562.02	137
1562.45	125
1562.88	175
1563.31	105
1563.73	147
1564.16	111
1564.59	151
1565.02	135
1565.45	135
1565.88	93
1566.3	141
1566.73	137
1567.16	141
1567.59	163
1568.02	135
1568.45	149
1568.88	165
1569.3	153
1569.73	165
1570.16	147
1570.59	113
1571.01	171
1571.44	141
1571.87	151
1572.3	141
1572.73	163
1573.15	193
1573.58	175
1574.01	139
1574.44	197
1574.87	131
1575.29	163
1575.72	185
1576.15	187
1576.58	191
1577	145
1577.43	159
1577.86	201
1578.29	205
1578.71	153
1579.14	223
1579.57	143
1580	231
1580.42	209
1580.85	207
1581.28	231
1581.71	197
1582.13	249
1582.56	243
1582.99	285
1583.41	217
1583.84	269
1584.27	219
1584.7	285
1585.12	243
1585.55	261
1585.98	281
1586.4	209
1586.83	297
1587.26	255
1587.68	287
1588.11	213
1588.54	279
1588.96	201
1589.39	251
1589.82	201
1590.24	209
1590.67	235
1591.1	149
1591.52	217
1591.95	203
1592.38	215
1592.8	173
1593.23	203
1593.65	185
1594.08	215
1594.51	161
1594.93	183
1595.36	171
1595.79	139
1596.21	197
1596.64	159
1597.06	221
1597.49	230.948
1597.92	200.598
1598.34	239.04
1598.77	153
1599.19	135
1599.62	169
1600.05	129
1600.47	133
1600.9	139
1601.32	163
1601.75	119
1602.18	179
1602.6	87
1603.03	159
1603.45	141
1603.88	119
1604.3	163
1604.73	115
1605.15	151
1605.58	103
1606	147
1606.43	113
1606.86	177
1607.28	91
1607.71	177
1608.13	135
1608.56	111
1608.98	183
1609.41	89
1609.83	159
1610.26	99
1610.68	151
1611.11	115
1611.53	161
1611.96	91
1612.38	147
1612.81	125
1613.23	121
1613.66	145
1614.08	87
1614.51	139
1614.93	113
1615.36	135
1615.78	131
1616.21	141
1616.63	75
1617.06	155
1617.48	123
1617.9	115
1618.33	151
1618.75	101
1619.18	167
1619.6	143
1620.03	131
1620.45	151
1620.88	111
1621.3	113
1621.72	131
1622.15	133
1622.57	129
1623	119
1623.42	121
1623.85	135
1624.27	145
1624.69	109
1625.12	173
1625.54	81
1625.97	157
1626.39	111
1626.81	117
1627.24	135
1627.66	89
1628.08	129
1628.51	121
1628.93	133
1629.36	101
1629.78	163
1630.2	81
1630.63	141
1631.05	135
1631.47	143
1631.9	169
1632.32	77
1632.74	147
1633.17	113
1633.59	143
1634.01	103
1634.44	153
1634.86	93
1635.28	147
1635.71	133
1636.13	101
1636.55	161
1636.98	77
1637.4	159
1637.82	117
1638.25	131
1638.67	95
1639.09	151
1639.51	95
1639.94	165
1640.36	95
1640.78	105
1641.21	141
1641.63	61
1642.05	147
1642.47	105
1642.9	131
1643.32	97
1643.74	123
1644.17	99
1644.59	159
1645.01	125
1645.43	123
1645.86	129
1646.28	83
1646.7	151
1647.12	123
1647.55	131
1647.97	121
1648.39	105
1648.81	133
1649.23	121
1649.66	111
1650.08	141
1650.5	129
1650.92	121
1651.35	105
1651.77	141
1652.19	85
1652.61	143
1653.03	79
1653.45	131
1653.88	117
1654.3	83
1654.72	147
1655.14	91
1655.56	153
1655.99	107
1656.41	139
1656.83	93
1657.25	149
1657.67	85
1658.09	135
1658.52	125
1658.94	97
1659.36	149
1659.78	91
1660.2	149
1660.62	117
1661.04	145
1661.47	101
1661.89	155
1662.31	77
1662.73	131
1663.15	133
1663.57	95
1663.99	157
1664.41	97
1664.83	145
1665.26	97
1665.68	153
1666.1	101
1666.52	129
1666.94	99
1667.36	169
1667.78	117
1668.2	83
1668.62	159
1669.04	81
1669.46	143
1669.89	89
1670.31	117
1670.73	127
1671.15	117
1671.57	103
1671.99	131
1672.41	129
1672.83	125
1673.25	139
1673.67	99
1674.09	135
1674.51	123
1674.93	123
1675.35	151
1675.77	89
1676.19	125
1676.61	147
1677.03	109
1677.45	121
1677.87	91
1678.29	121
1678.71	125
1679.13	119
1679.55	103
1679.97	147
1680.39	99
1680.81	119
1681.23	131
1681.65	107
1682.07	147
1682.49	71
1682.91	145
1683.33	125
1683.75	137
1684.17	107
1684.59	149
1685.01	105
1685.43	141
1685.85	147
1686.27	109
1686.69	165
1687.11	63
1687.53	145
1687.95	115
1688.37	151
1688.78	95
1689.2	143
1689.62	79
1690.04	117
1690.46	129
1690.88	101
1691.3	149
1691.72	57
1692.14	157
1692.56	107
1692.98	137
1693.39	111
1693.81	125
1694.23	113
1694.65	131
1695.07	113
1695.49	113
1695.91	153
1696.33	77
1696.75	147
1697.16	131
1697.58	123
1698	97
1698.42	99
1698.84	125
1699.26	139
1699.68	113
1700.09	135
1700.51	121
1700.93	103
1701.35	131
1701.77	121
1702.19	105
1702.6	123
1703.02	97
1703.44	119
1703.86	131
1704.28	89
1704.69	145
1705.11	83
1705.53	117
1705.95	117
1706.37	119
1706.78	93
1707.2	135
1707.62	75
1708.04	115
1708.46	139
1708.87	93
1709.29	151
1709.71	77
1710.13	149
1710.54	101
1710.96	145
1711.38	93
1711.8	145
1712.22	111
1712.63	145
1713.05	139
1713.47	83
1713.89	191
1714.3	81
1714.72	159
1715.14	103
1715.56	135
1715.97	115
1716.39	117
1716.81	115
1717.22	121
1717.64	129
1718.06	71
1718.48	147
1718.89	81
1719.31	143
1719.73	73
1720.14	125
1720.56	121
1720.98	103
1721.39	117
1721.81	143
1722.23	111
1722.64	111
1723.06	131
1723.48	99
1723.89	143
1724.31	91
1724.73	131
1725.14	125
1725.56	99
1725.98	111
1726.39	135
1726.81	109
1727.23	139
1727.64	113
1728.06	117
1728.48	141
1728.89	117
1729.31	103
1729.72	149
1730.14	89
1730.56	105
1730.97	139
1731.39	91
1731.8	151
1732.22	73
1732.64	125
1733.05	113
1733.47	113
1733.89	95
1734.3	139
1734.72	101
1735.13	107
1735.55	139
1735.96	93
1736.38	193
1736.8	61
1737.21	153
1737.63	103
1738.04	133
1738.46	117
1738.87	121
1739.29	111
1739.71	113
1740.12	127
1740.54	65
1740.95	163
1741.37	61
1741.78	137
1742.2	107
1742.61	131
1743.03	125
1743.44	95
1743.86	129
1744.27	107
1744.69	123
1745.1	101
1745.52	153
1745.93	59
1746.35	157
1746.77	123
1747.18	117
1747.59	135
1748.01	101
1748.42	113
1748.84	153
1749.25	129
1749.67	111
1750.08	123
1750.5	85
1750.91	145
1751.33	121
1751.74	99
1752.16	115
1752.57	91
1752.99	133
1753.4	139
1753.81	89
1754.23	143
1754.64	95
1755.06	113
1755.47	121
1755.89	137
1756.3	107
1756.72	117
1757.13	81
1757.54	133
1757.96	133
1758.37	67
1758.78	165
1759.2	77
1759.61	135
1760.03	101
1760.44	143
1760.86	123
1761.27	111
1761.68	115
1762.1	125
1762.51	129
1762.92	71
1763.34	189
1763.75	67
1764.17	157
1764.58	103
1764.99	121
1765.41	125
1765.82	87
1766.23	127
1766.65	123
1767.06	133
1767.47	81
1767.89	149
1768.3	55
1768.71	155
1769.13	81
1769.54	115
1769.95	129
1770.37	109
1770.78	127
1771.19	139
1771.61	127
1772.02	95
1772.43	135
1772.85	91
1773.26	171
1773.67	83
1774.09	107
1774.5	139
1774.91	109
1775.32	107
1775.74	125
1776.15	105
1776.56	131
1776.97	91
1777.39	113
1777.8	129
1778.21	95
1778.62	119
1779.04	131
1779.45	101
1779.86	105
1780.28	119
1780.69	81
1781.1	145
1781.51	67
1781.92	141
1782.34	95
1782.75	117
1783.16	105
1783.57	155
1783.99	139
1784.4	133
1784.81	179
1785.22	87
1785.63	169
1786.05	53
1786.46	147
1786.87	121
1787.28	127
1787.69	111
1788.11	129
1788.52	121
1788.93	93
1789.34	127
1789.75	107
1790.17	155
1790.58	41
1790.99	145
1791.4	93
1791.81	123
1792.22	121
1792.63	101
1793.05	115
1793.46	115
1793.87	129
1794.28	125
1794.69	143
1795.1	67
1795.52	129
1795.93	105
1796.34	141
1796.75	107
1797.16	87
1797.57	119
1797.98	143
1798.39	115
1798.81	125
1799.22	111
1799.63	89
1800.04	135
1800.45	111
1800.86	99
1801.27	107
1801.68	89
1802.09	121
1802.5	125
1802.91	93
1803.32	151
1803.73	75
1804.15	117
1804.56	115
1804.97	135
1805.38	115
1805.79	139
1806.2	107
1806.61	111
1807.02	139
1807.43	75
1807.84	165
1808.25	63
1808.66	153
1809.07	109
1809.48	123
1809.89	113
1810.3	93
1810.71	105
1811.12	133
1811.53	145
1811.94	61
1812.35	169
1812.76	67
1813.17	157
1813.58	89
1813.99	141
1814.4	117
1814.81	117
1815.22	97
1815.63	115
1816.04	121
1816.45	79
1816.86	165
1817.27	71
1817.68	151
1818.09	75
1818.5	101
1818.91	117
1819.32	101
1819.73	111
1820.14	133
1820.55	123
1820.96	107
1821.37	125
1821.78	91
1822.19	139
1822.6	93
1823.01	113
1823.42	143
1823.82	91
1824.23	131
1824.64	141
1825.05	115
1825.46	113
1825.87	97
1826.28	119
1826.69	131
1827.1	109
1827.51	127
1827.91	129
1828.32	97
1828.73	89
1829.14	125
1829.55	85
1829.96	155
1830.37	67
1830.78	137
1831.18	105
1831.59	117
1832	111
1832.41	115
1832.82	107
1833.23	101
1833.64	143
1834.05	97
1834.45	189
1834.86	75
1835.27	145
1835.68	109
1836.09	119
1836.49	139
1836.9	101
1837.31	111
1837.72	93
1838.13	121
1838.53	93
1838.94	141
1839.35	51
1839.76	143
1840.17	91
1840.58	117
1840.98	123
1841.39	97
1841.8	125
1842.21	103
1842.61	133
1843.02	87
1843.43	157
1843.84	49
1844.25	151
1844.65	105
1845.06	121
1845.47	133
1845.88	107
1846.28	114.874
1846.69	109.216
1847.1	124.811
1847.51	121.093
1847.91	147.37
1848.32	79.6968
1848.73	134.924
1849.14	119.283
1849.54	113.349
1849.95	129.086
1850.36	107.894
1850.77	126.822
1851.17	120.379
1851.58	110.98
1851.99	129.233
1852.39	88.6962
1852.8	97.9127
1853.21	138.999
1853.62	107.081
1854.02	105.901
1854.43	112.531
1854.84	99.7232
1855.24	122.414
1855.65	122.421
1856.06	94.0938
1856.46	143.45
1856.87	78.4162
1857.28	123.84
1857.68	116.855
1858.09	117.979
1858.5	114.644
1858.9	97.9013
1859.31	109.951
1859.72	122.073
1860.12	129.754
1860.53	73.3161
1860.94	159.202
1861.34	75.2766
1861.75	126.851
1862.15	103.361
1862.56	135.06
1862.97	102.975
1863.37	110.185
1863.78	107.36
1864.19	113.359
1864.59	133.488
1865	75.7217
1865.4	156.826
1865.81	85.0941
1866.22	141.214
1866.62	96.5929
1867.03	119.026
1867.43	112.502
1867.84	109.573
1868.25	122.788
1868.65	119.099
1869.06	121.306
1869.46	93.2725
1869.87	133.989
1870.28	92.9705
1870.68	128.883
1871.09	100.067
1871.49	123.788
1871.9	117.556
1872.3	112.801
1872.71	101.416
1873.12	122.182
1873.52	116.733
1873.93	108.537
1874.33	121.01
1874.74	104.531
1875.14	114.469
1875.55	108.606
1875.95	116.675
1876.36	123.952
1876.76	114.533
1877.17	104.368
1877.57	109.546
1877.98	119.834
1878.38	121.393
1878.79	114.77
1879.19	121.018
1879.6	112.092
1880	117.964
1880.41	106.093
1880.81	118.737
1881.22	116.945
1881.63	98.6596
1882.03	101.729
1882.43	124.332
1882.84	118.689
1883.24	119.75
1883.65	114.491
1884.05	108.598
1884.46	129.217
1884.86	110.524
1885.27	117.129
1885.67	116.929
1886.08	101.835
1886.48	100.861
1886.89	113.681
1887.29	103.982
1887.69	105.222
1888.1	102.868
1888.5	95.7656
1888.85	133
1889.26	127
1889.67	99
1890.08	131
1890.49	85
1890.9	117
1891.3	115
1891.71	123
1892.12	133
1892.53	59
1892.94	115
1893.35	117
1893.76	147
1894.17	83
1894.58	167
1894.99	65
1895.4	125
1895.81	125
1896.22	109
1896.62	149
1897.03	63
1897.44	129
1897.85	99
1898.26	137
1898.67	99
1899.08	153
1899.49	83
1899.9	139
1900.3	115
1900.71	87
1901.12	153
1901.53	39
1901.94	135
1902.35	105
1902.75	131
1903.16	83
1903.57	163
1903.98	77
1904.39	141
1904.8	111
1905.21	99
1905.61	143
1906.02	49
1906.43	153
1906.84	109
1907.25	137
1907.66	99
1908.06	115
1908.47	99
1908.88	153
1909.29	97
1909.7	121
1910.1	131
1910.51	67
1910.92	147
1911.33	111
1911.73	131
1912.14	115
1912.55	97
1912.96	111
1913.37	139
1913.77	127
1914.18	117
1914.59	127
1915	95
1915.4	121
1915.81	145
1916.22	97
1916.63	135
1917.03	85
1917.44	119
1917.85	121
1918.26	103
1918.66	129
1919.07	103
1919.48	121
1919.89	121
1920.29	131
1920.7	103
1921.11	139
1921.51	79
1921.92	135
1922.33	115
1922.73	85
1923.14	143
1923.55	107
1923.96	117
1924.36	103
1924.77	129
1925.18	87
1925.58	159
1925.99	69
1926.4	159
1926.8	99
1927.21	101
1927.62	141
1928.02	75
1928.43	121
1928.84	75
1929.24	143
1929.65	97
1930.06	141
1930.46	47
1930.87	139
1931.28	107
1931.68	105
1932.09	151
1932.49	85
1932.9	113
1933.31	99
1933.71	153
1934.12	111
1934.53	119
1934.93	85
1935.34	147
1935.74	123
1936.15	115
1936.56	133
1936.96	115
1937.37	125
1937.78	107
1938.18	107
1938.59	119
1938.99	123
1939.4	79
1939.8	127
1940.21	113
1940.62	127
1941.02	121
1941.43	109
1941.83	127
1942.24	125
1942.64	109
1943.05	147
1943.45	77
1943.86	97
1944.27	145
1944.67	129
1945.08	121
1945.48	103
1945.89	115
1946.29	123
1946.7	137
1947.1	89
1947.51	159
1947.91	59
1948.32	141
1948.72	123
1949.13	127
1949.53	135
1949.94	83
1950.34	121
1950.75	111
1951.15	163
1951.56	77
1951.96	149
1952.37	87
1952.77	153
1953.18	95
1953.58	113
1953.99	141
1954.39	81
1954.8	123
1955.2	119
1955.61	133
1956.01	103
1956.42	161
1956.82	87
1957.23	147
1957.63	97
1958.03	131
1958.44	143
1958.84	101
1959.25	129
1959.65	125
1960.06	143
1960.46	103
1960.86	141
1961.27	103
1961.67	143
1962.08	91
1962.48	109
1962.89	139
1963.29	97
1963.69	141
1964.1	127
1964.5	119
1964.91	117
1965.31	111
1965.71	101
1966.12	139
1966.52	95
1966.93	111
1967.33	135
1967.73	89
1968.14	121
1968.54	123
1968.94	97
1969.35	157
1969.75	87
1970.15	131
1970.56	105
1970.96	107
1971.37	117
1971.77	151
1972.17	113
1972.58	121
1972.98	133
1973.38	95
1973.79	165
1974.19	95
1974.59	141
1974.99	123
1975.4	107
1975.8	113
1976.21	119
1976.61	111
1977.01	103
1977.41	157
1977.82	89
1978.22	155
1978.62	59
1979.03	143
1979.43	117
1979.83	111
1980.24	117
1980.64	111
1981.04	129
1981.44	99
1981.85	147
1982.25	101
1982.65	161
1983.05	67
1983.46	171
1983.86	103
1984.26	139
1984.66	139
1985.07	117
1985.47	133
1985.87	111
1986.27	139
1986.68	87
1987.08	161
1987.48	67
1987.88	145
1988.29	115
1988.69	111
1989.09	139
1989.49	79
1989.89	105
1990.3	117
1990.7	115
1991.1	93
1991.5	125
1991.9	89
1992.31	123
1992.71	117
1993.11	115
1993.51	109
1993.91	99
1994.32	127
1994.72	135
1995.12	121
1995.52	145
1995.92	109
1996.32	93
1996.73	133
1997.13	121
1997.53	109
1997.93	123
1998.33	89
1998.73	143
1999.14	133
1999.54	107
1999.94	161
2000.34	79
2000.74	131
2001.14	125
2001.54	121
2001.94	111
2002.35	101
2002.75	99
2003.15	111
2003.55	139
2003.95	87
2004.35	175
2004.75	53
2005.15	139
2005.55	99
2005.96	123
2006.36	109
2006.76	91
2007.16	127
2007.56	129
2007.96	137
2008.36	53
2008.76	159
2009.16	67
2009.56	163
2009.96	111
2010.36	125
2010.76	121
2011.16	115
2011.57	119
2011.97	141
2012.37	129
2012.77	77
2013.17	141
2013.57	85
2013.97	153
2014.37	97
2014.77	121
2015.17	129
2015.57	107
2015.97	101
2016.37	125
2016.77	139
2017.17	105
2017.57	135
2017.97	71
2018.37	147
2018.77	93
2019.17	115
2019.57	133
2019.97	95
2020.37	109
2020.77	137
2021.17	113
2021.57	133
2021.97	113
2022.37	135
2022.77	117
2023.17	129
2023.57	111
2023.97	143
2024.37	87
2024.77	123
2025.17	139
2025.57	117
2025.97	159
2026.37	75
2026.77	139
2027.16	125
2027.56	143
2027.96	111
2028.36	131
2028.76	101
2029.16	125
2029.56	151
2029.96	93
2030.36	165
2030.76	65
2031.16	145
2031.56	117
2031.96	131
2032.35	109
2032.75	121
2033.15	91
2033.55	133
2033.95	131
2034.35	83
2034.75	153
2035.15	33
2035.54	153
2035.94	109
2036.34	145
2036.74	105
2037.14	109
2037.54	99
2037.94	127
2038.34	125
2038.74	71
2039.13	137
2039.53	47
2039.93	153
2040.33	93
2040.73	125
2041.12	115
2041.52	87
2041.92	125
2042.32	127
2042.72	117
2043.12	105
2043.51	129
2043.91	93
2044.31	155
2044.71	133
2045.11	115
2045.51	101
2045.9	95
2046.3	113
2046.7	139
2047.1	99
2047.49	127
2047.89	101
2048.29	103
2048.69	135
2049.09	123
2049.48	121
2049.88	117
2050.28	95
2050.68	141
2051.07	137
2051.47	89
2051.87	167
2052.27	103
2052.67	151
2053.06	125
2053.46	137
2053.86	95
2054.26	121
2054.65	99
2055.05	139
2055.45	127
2055.85	89
2056.24	161
2056.64	71
2057.04	155
2057.43	81
2057.83	141
2058.23	85
2058.62	131
2059.02	83
2059.42	127
2059.82	137
2060.21	91
2060.61	167
2061.01	81
2061.4	171
2061.8	87
2062.2	147
2062.59	111
2062.99	119
2063.39	89
2063.79	131
2064.18	125
2064.58	79
2064.97	157
2065.37	69
2065.77	155
2066.16	89
2066.56	139
2066.96	125
2067.35	111
2067.75	101
2068.15	129
2068.54	115
2068.94	107
2069.34	135
2069.73	77
2070.13	135
2070.52	83
2070.92	125
2071.32	133
2071.71	77
2072.11	91
2072.51	111
2072.9	127
2073.3	111
2073.69	129
2074.09	97
2074.49	141
2074.88	105
2075.28	123
2075.67	149
2076.07	65
2076.47	99
2076.86	117
2077.26	109
2077.65	151
2078.05	101
2078.44	107
2078.84	121
2079.23	113
2079.63	95
2080.03	137
2080.42	121
2080.82	113
2081.21	141
2081.61	97
2082	149
2082.4	65
2082.79	135
2083.19	101
2083.58	127
2083.98	91
2084.37	147
2084.77	87
2085.16	99
2085.56	129
2085.95	89
2086.35	169
2086.74	85
2087.14	149
2087.53	123
2087.93	167
2088.32	117
2088.72	135
2089.11	95
2089.51	119
2089.9	133
2090.3	87
2090.69	153
2091.09	43
2091.48	147
2091.88	109
2092.27	139
2092.67	103
2093.06	111
2093.46	89
2093.85	145
2094.25	129
2094.64	105
2095.03	153
2095.43	61
2095.82	151
2096.22	107
2096.61	137
2097.01	103
2097.4	103
2097.79	115
2098.19	133
2098.58	119
2098.98	113
2099.37	123
2099.76	83
2100.16	133
2100.55	119
2100.95	127
2101.34	131
2101.73	113
2102.13	117
2102.52	137
2102.92	109
2103.31	129
2103.7	101
2104.1	103
2104.49	125
2104.88	119
2105.28	105
2105.67	123
2106.07	79
2106.46	119
2106.85	139
2107.25	89
2107.64	149
2108.03	87
2108.43	117
2108.82	95
2109.21	129
2109.61	79
2110	129
2110.39	95
2110.79	133
2111.18	125
2111.57	71
2111.97	157
2112.36	63
2112.75	143
2113.15	85
2113.54	147
2113.93	85
2114.32	137
2114.72	75
2115.11	129
2115.5	125
2115.9	97
2116.29	167
2116.68	67
2117.08	145
2117.47	101
2117.86	137
2118.25	103
2118.65	111
2119.04	87
2119.43	127
2119.82	113
2120.22	93
2120.61	149
2121	79
2121.39	149
2121.79	91
2122.18	125
2122.57	101
2122.96	115
2123.36	77
2123.75	145
2124.14	111
2124.53	103
2124.93	151
2125.32	95
2125.71	147
2126.1	91
2126.49	127
2126.89	121
2127.28	109
2127.67	103
2128.06	127
2128.45	131
2128.85	109
2129.24	105
2129.63	95
2130.02	115
2130.41	113
2130.81	101
2131.2	147
2131.59	75
2131.98	107
2132.37	139
2132.76	107
2133.16	135
2133.55	91
2133.94	119
2134.33	113
2134.72	137
2135.11	93
2135.5	133
2135.9	71
2136.29	121
2136.68	141
2137.07	97
2137.46	129
2137.85	81
2138.24	139
2138.63	127
2139.03	149
2139.42	91
2139.81	141
2140.2	91
2140.59	117
2140.98	103
2141.37	111
2141.76	157
2142.15	69
2142.55	131
2142.94	105
2143.33	131
2143.72	85
2144.11	133
2144.5	69
2144.89	125
2145.28	121
2145.67	87
2146.06	143
2146.45	37
2146.84	153
2147.23	97
2147.62	155
2148.02	99
2148.4	131
2148.8	97
2149.19	123
2149.58	127
2149.97	95
2150.36	143
2150.75	61
2151.14	151
2151.53	105
2151.92	125
2152.31	91
2152.7	123
2153.09	103
2153.48	119
2153.87	89
2154.26	115
2154.65	129
2155.04	83
2155.43	125
2155.82	117
2156.21	119
2156.6	119
2156.99	91
2157.38	113
2157.77	143
2158.16	105
2158.55	115
2158.94	107
2159.33	99
2159.72	115
2160.11	115
2160.5	89
2160.89	123
2161.28	93
2161.66	119
2162.05	135
2162.44	111
2162.83	123
2163.22	95
2163.61	131
2164	127
2164.39	135
2164.78	71
2165.17	151
2165.56	91
2165.95	123
2166.34	129
2166.73	87
2167.11	155
2167.5	63
2167.89	145
2168.28	77
2168.67	131
2169.06	93
2169.45	137
2169.84	85
2170.23	145
2170.62	121
2171	71
2171.39	159
2171.78	59
2172.17	147
2172.56	87
2172.95	129
2173.34	111
2173.73	129
2174.11	87
2174.5	147
2174.89	127
2175.28	93
2175.67	139
2176.06	85
2176.45	135
2176.83	63
2177.22	125
2177.61	107
2178	117
2178.39	63
2178.78	123
2179.16	95
2179.55	95
2179.94	121
2180.33	89
2180.72	123
2181.1	77
2181.49	121
2181.88	125
2182.27	103
2182.66	85
2183.04	131
2183.43	113
2183.82	115
2184.21	119
2184.6	97
2184.98	125
2185.37	105
2185.76	119
2186.15	149
2186.53	83
2186.92	109
2187.31	131
2187.7	117
2188.08	137
2188.47	69
2188.86	123
2189.25	105
2189.63	139
2190.02	91
2190.41	151
2190.8	67
2191.18	109
2191.57	137
2191.96	119
2192.34	147
2192.73	69
2193.12	123
2193.51	105
2193.89	127
2194.28	93
2194.67	149
2195.06	85
2195.44	129
2195.83	113
2196.22	105
2196.6	141
2196.99	61
2197.38	135
2197.76	103
2198.15	151
2198.54	61
2198.92	145
2199.31	65
2199.7	141
2200.08	111
2200.47	107
2200.86	151
2201.24	61
2201.63	155
2202.02	109
2202.4	145
2202.79	91
2203.18	123
2203.56	95
2203.95	151
2204.34	125
2204.72	107
2205.11	133
2205.49	65
2205.88	135
2206.27	113
2206.65	111
2207.04	107
2207.43	91
2207.81	105
2208.2	121
2208.58	91
2208.97	121
2209.36	135
2209.74	101
2210.13	129
2210.51	121
2210.9	101
2211.29	135
2211.67	87
2212.06	105
2212.44	125
2212.83	99
2213.21	119
2213.6	109
2213.98	103
2214.37	107
2214.76	123
2215.14	95
2215.53	143
2215.91	83.0222
2216.3	152.419
2216.69	127.612
2217.07	94.7593
2217.46	116.454
2217.84	110.197
2218.23	129.597
2218.61	97.6375
2219	139.16
2219.38	83.1891
2219.77	154.507
2220.15	67.9163
2220.54	130.987
2220.92	103.358
2221.31	89.5644
2221.69	140.057
2222.08	67.9446
2222.46	138.39
2222.85	67.4005
2223.23	143.551
2223.62	92.8137
2224	129.677
2224.39	83.695
2224.77	120.914
2225.16	108.122
2225.54	97.1563
2225.93	144.319
2226.31	91.2925
2226.7	137.146
2227.08	90.1352
2227.47	132.663
2227.85	106.778
2228.23	113.244
2228.62	103.42
2229	133.147
2229.39	94.3392
2229.77	117.806
2230.16	129.04
2230.54	83.9988
2230.92	118.698
2231.31	94.9315
2231.69	120.249
2232.08	115.227
2232.46	101.286
2232.85	95.7999
2233.23	111.783
2233.62	107.494
2234	105.758
2234.38	126.609
2234.77	96.3934
2235.15	125.426
2235.54	106.824
2235.92	117.715
2236.3	135.501
2236.69	103.954
2237.07	110.914
2237.46	126.72
2237.84	113.851
2238.22	131.682
2238.61	110.456
2238.99	114.098
2239.37	106.312
2239.76	112.151
2240.14	108.34
2240.53	127.367
2240.91	100.874
2241.29	107.934
2241.68	128.327
2242.06	97.0599
2242.44	130.001
2242.83	97.1425
2243.21	119.273
2243.59	116.186
2243.98	110.028
2244.36	105.416
2244.74	130.921
2245.13	105.538
2245.51	104.887
2245.89	128.173
2246.28	91.3053
2246.66	143.773
2247.04	99.5516
2247.43	133.227
2247.81	122.28
2248.19	100.287
2248.58	109.901
2248.96	130.515
2249.34	119.828
2249.73	89.4079
2250.11	140.144
2250.49	88.7744
2250.88	150.896
2251.26	81.5343
2251.64	118.105
2252.02	137.879
2252.41	94.0708
2252.79	108.389
2252.8	109
2253.18	111
2253.57	135
2253.96	119
2254.35	119
2254.74	83
2255.12	127
2255.51	95
2255.9	103
2256.29	141
2256.67	85
2257.06	105
2257.45	125
2257.84	95
2258.22	135
2258.61	97
2259	121
2259.39	129
2259.77	115
2260.16	119
2260.55	131
2260.94	89
2261.32	117
2261.71	121
2262.1	103
2262.48	145
2262.87	95
2263.26	127
2263.65	95
2264.03	117
2264.42	97
2264.81	147
2265.19	95
2265.58	109
2265.97	129
2266.35	93
2266.74	155
2267.13	55
2267.51	153
2267.9	99
2268.29	135
2268.67	119
2269.06	131
2269.45	87
2269.83	87
2270.22	157
2270.61	103
2270.99	155
2271.38	31
2271.77	149
2272.15	93
2272.54	135
2272.93	109
2273.31	97
2273.7	95
2274.08	121
2274.47	135
2274.86	95
2275.24	163
2275.63	59
2276.02	151
2276.4	105
2276.79	121
2277.17	101
2277.56	109
2277.95	107
2278.33	131
2278.72	123
2279.1	93
2279.49	147
2279.88	43
2280.26	139
2280.65	101
2281.03	149
2281.42	119
2281.8	95
2282.19	143
2282.58	129
2282.96	125
2283.35	117
2283.73	123
2284.12	69
2284.5	139
2284.89	119
2285.28	133
2285.66	117
2286.05	99
2286.43	125
2286.82	125
2287.2	93
2287.59	123
2287.97	101
2288.36	111
2288.74	127
2289.13	133
2289.51	107
2289.9	133
2290.28	85
2290.67	125
2291.05	117
2291.44	89
2291.82	135
2292.21	93
2292.59	131
2292.98	101
2293.36	131
2293.75	77
2294.13	127
2294.52	77
2294.9	119
2295.29	145
2295.67	83
2296.06	145
2296.44	89
2296.83	135
2297.21	109
2297.6	153
2297.98	89
2298.36	147
2298.75	83
2299.13	135
2299.52	111
2299.9	87
2300.29	143
2300.67	87
2301.06	145
2301.44	85
2301.82	135
2302.21	99
2302.59	153
2302.98	73
2303.36	127
2303.75	99
2304.13	107
2304.51	161
2304.9	67
2305.28	135
2305.67	93
2306.05	141
2306.44	113
2306.82	129
2307.2	71
2307.59	125
2307.97	133
2308.35	111
2308.74	143
2309.12	89
2309.51	123
2309.89	101
2310.27	125
2310.66	129
2311.04	123
2311.42	89
2311.81	131
2312.19	131
2312.57	119
2312.96	127
2313.34	77
2313.73	131
2314.11	111
2314.49	127
2314.88	117
2315.26	97
2315.64	99
2316.03	123
2316.41	113
2316.79	117
2317.18	109
2317.56	95
2317.94	115
2318.32	137
2318.71	91
2319.09	143
2319.47	79
2319.86	117
2320.24	107
2320.62	137
2321.01	117
2321.39	109
2321.77	111
2322.15	109
2322.54	149
2322.92	89
2323.3	171
2323.69	67
2324.07	133
2324.45	115
2324.83	121
2325.22	129
2325.6	61
2325.98	117
2326.36	121
2326.75	143
2327.13	79
2327.51	163
2327.89	69
2328.28	137
2328.66	107
2329.04	109
2329.42	133
2329.81	89
2330.19	129
2330.57	117
2330.95	147
2331.33	79
2331.72	161
2332.1	71
2332.48	151
2332.86	105
2333.24	111
2333.63	129
2334.01	79
2334.39	117
2334.77	109
2335.15	137
2335.54	89
2335.92	147
2336.3	73
2336.68	147
2337.06	107
2337.44	123
2337.83	141
2338.21	105
2338.59	131
2338.97	111
2339.35	113
2339.73	93
2340.12	117
2340.5	87
2340.88	145
2341.26	99
2341.64	117
2342.02	123
2342.41	107
2342.79	107
2343.17	119
2343.55	117
2343.93	129
2344.31	113
2344.69	95
2345.07	143
2345.45	101
2345.84	105
2346.22	157
2346.6	105
2346.98	119
2347.36	121
2347.74	101
2348.12	131
2348.5	93
2348.88	109
2349.26	133
2349.65	111
2350.03	107
2350.41	145
2350.79	93
2351.17	105
2351.55	157
2351.93	115
2352.31	169
2352.69	63
2353.07	123
2353.45	99
2353.83	125
2354.21	113
2354.59	111
2354.98	115
2355.35	83
2355.74	137
2356.12	103
2356.5	177
2356.88	75
2357.26	159
2357.64	117
2358.02	123
2358.4	117
2358.78	121
2359.16	115
2359.54	125
2359.92	137
2360.3	79
2360.68	161
2361.06	51
2361.44	147
2361.82	109
2362.2	135
2362.58	117
2362.96	101
2363.34	103
2363.72	115
2364.1	133
2364.48	99
2364.86	165
2365.24	49
2365.62	159
2366	107
2366.38	115
2366.75	109
2367.14	109
2367.51	107
2367.89	119
2368.27	131
2368.65	97
2369.03	141
2369.41	61
2369.79	147
2370.17	109
2370.55	121
2370.93	133
2371.31	97
2371.69	127
2372.07	147
2372.45	131
2372.83	133
2373.2	131
2373.58	83
2373.96	135
2374.34	117
2374.72	109
2375.1	103
2375.48	97
2375.86	121
2376.24	135
2376.61	103
2376.99	137
2377.37	93
2377.75	129
2378.13	147
2378.51	125
2378.89	99
2379.27	125
2379.65	103
2380.02	131
2380.4	135
2380.78	93
2381.16	143
2381.54	85
2381.92	153
2382.3	113
2382.67	161
2383.05	95
2383.43	127
2383.81	87
2384.19	131
2384.57	129
2384.94	67
2385.32	183
2385.7	97
2386.08	143
2386.46	89
2386.83	155
2387.21	127
2387.59	137
2387.97	75
2388.35	135
2388.73	131
2389.1	83
2389.48	143
2389.86	77
2390.24	157
2390.62	97
2390.99	147
2391.37	105
2391.75	131
2392.13	69
2392.5	121
2392.88	123
2393.26	111
2393.64	163
2394.01	77
2394.39	137
2394.77	99
2395.15	145
2395.52	125
2395.9	119
2396.28	87
2396.66	151
2397.04	121
2397.41	117
2397.79	153
2398.17	81
2398.54	129
2398.92	91
2399.3	117
2399.68	151
2400.05	103
2400.43	83
2400.81	141
2401.18	117
2401.56	121
2401.94	125
2402.32	111
2402.69	127
2403.07	141
2403.45	121
2403.82	137
2404.2	79
2404.58	83
2404.95	137
2405.33	125
2405.71	117
2406.09	101
2406.46	117
2406.84	127
2407.22	155
2407.59	111
2407.97	139
2408.34	91
2408.72	123
2409.1	123
2409.47	147
2409.85	147
2410.23	95
2410.6	137
2410.98	95
2411.36	153
2411.73	85
2412.11	175
2412.49	89
2412.86	157
2413.24	121
2413.61	105
2413.99	145
2414.37	69
2414.74	165
2415.12	113
2415.5	137
2415.87	83
2416.25	159
2416.62	79
2417	155
2417.37	121
2417.75	115
2418.13	141
2418.5	81
2418.88	161
2419.25	125
2419.63	149
2420.01	105
2420.38	145
2420.76	91
2421.13	147
2421.51	127
2421.88	105
2422.26	163
2422.64	87
2423.01	149
2423.39	125
2423.76	149
2424.14	103
2424.51	115
2424.89	87
2425.26	147
2425.64	99
2426.01	111
2426.39	131
2426.76	91
2427.14	137
2427.52	127
2427.89	125
2428.26	91
2428.64	125
2429.02	107
2429.39	147
2429.77	109
2430.14	141
2430.52	145
2430.89	123
2431.26	125
2431.64	143
2432.02	111
2432.39	145
2432.77	97
2433.14	145
2433.51	141
2433.89	101
2434.26	125
2434.64	115
2435.01	133
2435.39	135
2435.76	141
2436.14	101
2436.51	153
2436.89	81
2437.26	119
2437.63	143
2438.01	113
2438.38	131
2438.76	115
2439.13	127
2439.51	127
2439.88	147
2440.26	117
2440.63	167
2441	85
2441.38	127
2441.75	123
2442.13	119
2442.5	149
2442.87	117
2443.25	135
2443.62	101
2444	153
2444.37	113
2444.74	207
2445.12	73
2445.49	155
2445.87	105
2446.24	123
2446.61	147
2446.99	97
2447.36	147
2447.73	101
2448.11	141
2448.48	111
2448.86	173
2449.23	71
2449.6	165
2449.98	119
2450.35	137
2450.72	159
2451.1	113
2451.47	141
2451.84	109
2452.22	137
2452.59	109
2452.97	157
2453.34	63
2453.71	155
2454.08	121
2454.46	141
2454.83	145
2455.2	119
2455.58	127
2455.95	117
2456.32	135
2456.7	133
2457.07	125
2457.44	69
2457.82	161
2458.19	125
2458.56	117
2458.93	151
2459.31	121
2459.68	131
2460.05	125
2460.43	131
2460.8	123
2461.17	157
2461.54	137
2461.92	139
2462.29	144.333
2462.66	137.833
2463.03	140.233
2463.41	131
2463.78	149
2464.15	141
2464.52	107
2464.9	159
2465.27	97
2465.64	121
2466.01	135
2466.39	113
2466.76	131
2467.13	125
2467.5	97
2467.88	117
2468.25	145
2468.62	91
2468.99	169
2469.37	75
2469.74	135
2470.11	123
2470.48	119
2470.85	121
2471.22	115
2471.6	123
2471.97	151
2472.34	147
2472.71	75
2473.08	159
2473.46	67
2473.83	149
2474.2	105
2474.57	145
2474.94	127
2475.32	127
2475.69	121
2476.06	145
2476.43	141
2476.8	75
2477.17	163
2477.55	73
2477.92	157
2478.29	93
2478.66	133
2479.03	129
2479.4	119
2479.77	111
2480.15	133
2480.52	139
2480.89	77
2481.26	161
2481.63	91
2482	155
2482.37	103
2482.74	131
2483.12	125
2483.49	115
2483.86	109
2484.23	141
2484.6	131
2484.97	113
2485.34	143
2485.71	89
2486.08	151
2486.46	105
2486.83	129
2487.2	141
2487.57	105
2487.94	117
2488.31	145
2488.68	109
2489.05	117
2489.42	147
2489.79	95
2490.16	139
2490.53	113
2490.9	127
2491.27	139
2491.64	107
2492.01	117
2492.38	131
2492.76	119
2493.13	115
2493.5	115
2493.87	121
2494.24	113
2494.61	121
2494.98	107
2495.35	147
2495.72	95
2496.09	101
2496.46	129
2496.83	103
2497.2	147
2497.57	73
2497.94	149
2498.31	111
2498.68	133
2499.05	111
2499.42	139
2499.79	103
2500.16	99
2500.53	143
2500.9	95
2501.27	173
2501.64	69
2502.01	139
2502.38	119
2502.75	135
2503.12	99
2503.49	149
2503.86	77
2504.23	127
2504.6	129
2504.97	107
2505.34	157
2505.7	51
2506.07	151
2506.44	103
2506.81	143
2507.18	91
2507.55	157
2507.92	91
2508.29	123
2508.66	115
2509.03	91
2509.4	167
2509.77	47
2510.14	151
2510.5	101
2510.88	145
2511.24	97
2511.61	113
2511.98	109
2512.35	153
2512.72	125
2513.09	91
2513.46	161
2513.83	65
2514.2	145
2514.56	111
2514.93	141
2515.3	111
2515.67	107
2516.04	107
2516.41	155
2516.78	121
2517.15	131
2517.51	141
2517.88	93
2518.25	127
2518.62	127
2518.99	123
2519.36	121
2519.73	103
2520.09	101
2520.46	127
2520.83	123
2521.2	121
2521.57	125
2521.94	101
2522.3	125
2522.67	123
2523.04	97
2523.41	125
2523.78	79
2524.15	145
2524.51	125
2524.88	101
2525.25	127
2525.62	129
2525.98	131
2526.35	123
2526.72	153
2527.09	83
2527.46	149
2527.83	69
2528.19	145
2528.56	121
2528.93	113
2529.3	161
2529.66	93
2530.03	121
2530.4	77
2530.77	133
2531.13	95
2531.5	155
2531.87	67
2532.24	131
2532.61	99
2532.97	99
2533.34	139
2533.71	89
2534.07	131
2534.44	79
2534.81	145
2535.18	79
2535.54	155
2535.91	53
2536.28	143
2536.65	111
2537.01	131
2537.38	137
2537.75	91
2538.11	139
2538.48	103
2538.85	145
2539.22	95
2539.58	149
2539.95	57
2540.32	165
2540.68	95
2541.05	119
2541.42	153
2541.78	89
2542.15	133
2542.52	111
2542.89	139
2543.25	117
2543.62	135
2543.99	79
2544.35	133
2544.72	129
2545.08	111
2545.45	119
2545.82	89
2546.19	127
2546.55	131
2546.92	115
2547.28	141
2547.65	105
2548.02	109
2548.38	139
2548.75	133
2549.12	123
2549.48	97
2549.85	81
2550.21	127
2550.58	137
2550.95	83
2551.31	137
2551.68	73
2552.05	115
2552.41	143
2552.78	133
2553.14	119
2553.51	111
2553.88	101
2554.24	121
2554.61	117
2554.97	81
2555.34	167
2555.71	57
2556.07	141
2556.44	99
2556.8	135
2557.17	99
2557.53	99
2557.9	111
2558.27	139
2558.63	147
2559	63
2559.36	151
2559.73	79
2560.09	139
2560.46	89
2560.82	145
2561.19	117
2561.55	103
2561.92	113
2562.29	127
2562.65	133
2563.02	87
2563.38	147
2563.75	77
2564.11	153
2564.48	89
2564.84	119
2565.21	139
2565.57	120.817
2565.94	111.106
2566.3	131.102
2566.67	113.776
2567.03	80.7294
2567.4	136.981
2567.76	74.7606
2568.13	141.595
2568.49	93.0343
2568.86	132.989
2569.22	136.832
2569.59	111.941
2569.95	111.801
2570.32	136.496
2570.68	108.734
2571.05	116.34
2571.41	118.871
2571.78	93.8587
2572.14	116.568
2572.51	96.3088
2572.87	119.084
2573.23	142.814
2573.6	106.277
2573.96	107.535
2574.33	119.009
2574.69	111.791
2575.06	130.305
2575.42	102.452
2575.79	125.085
2576.15	130.833
2576.51	124.361
2576.88	125.18
2577.24	134.595
2577.61	102.238
2577.97	112.721
2578.34	143.406
2578.7	110.052
2579.06	145.69
2579.43	92.4236
2579.79	111.892
2580.16	114.793
2580.52	128.871
2580.88	115.016
2581.25	141.698
2581.61	87.9374
2581.98	107.021
2582.34	129.567
2582.7	113.82
2583.07	141.612
2583.43	87.8112
2583.8	118.51
2584.16	114.093
2584.52	130.839
2584.89	118.974
2585.25	145.042
2585.61	87.3535
2585.98	112.963
2586.34	134.469
2586.7	129.087
2587.07	142.785
2587.43	85.8506
2587.8	119.391
2588.16	120.736
2588.52	145.819
2588.88	107.318
2589.25	141.535
2589.61	98.9055
2589.97	121.74
2590.34	117.931
2590.7	117.229
2591.06	129.144
2591.43	80.2421
2591.79	117.058
2592.15	121.801
2592.52	152.464
2592.88	83.7584
2593.24	161.969
2593.61	85.2389
2593.97	147.135
2594.33	116.351
2594.7	123.786
2595.06	132.675
2595.42	110.564
2595.78	133.958
2596.15	126.63
2596.51	157.244
2596.87	88.4106
2597.24	143.653
2597.6	81.4343
2597.96	156.025
2598.32	114.717
2598.69	136.285
2599.05	116.969
2599.41	92.7004
2599.78	116.16
2600.14	121.663
2600.5	144.189
2600.86	97.293
2600.95	81
2601.31	161
2601.68	95
2602.05	161
2602.42	105
2602.78	135
2603.15	123
2603.52	113
2603.89	139
2604.25	139
2604.62	151
2604.99	81
2605.35	155
2605.72	89
2606.09	151
2606.46	89
2606.82	117
2607.19	139
2607.56	109
2607.92	121
2608.29	145
2608.66	125
2609.03	141
2609.39	133
2609.76	99
2610.13	143
2610.49	99
2610.86	123
2611.23	147
2611.59	115
2611.96	119
2612.33	153
2612.69	111
2613.06	143
2613.43	111
2613.79	123
2614.16	145
2614.53	123
2614.89	135
2615.26	157
2615.62	119
2615.99	105
2616.36	147
2616.72	135
2617.09	161
2617.46	117
2617.82	145
2618.19	131
2618.56	161
2618.92	109
2619.29	153
2619.65	107
2620.02	149
2620.39	137
2620.75	135
2621.12	185
2621.48	79
2621.85	167
2622.22	139
2622.58	171
2622.95	155
2623.31	195
2623.68	103
2624.04	141
2624.41	159
2624.78	129
2625.14	185
2625.51	99
2625.87	191
2626.24	181
2626.6	177
2626.97	145
2627.34	171
2627.7	149
2628.07	177
2628.43	167
2628.8	129
2629.16	189
2629.53	119
2629.9	203
2630.26	151
2630.63	189
2630.99	133
2631.36	185
2631.72	137
2632.09	185
2632.45	155
2632.82	133
2633.18	193
2633.55	103
2633.91	191
2634.28	161
2634.64	183
2635.01	133
2635.37	175
2635.74	161
2636.1	217
2636.47	167
2636.83	169
2637.2	231
2637.56	119
2637.93	205
2638.29	177
2638.66	199
2639.02	161
2639.39	155
2639.75	203
2640.12	199
2640.48	171
2640.84	191
2641.21	195
2641.57	175
2641.94	191
2642.3	191
2642.67	205
2643.03	197
2643.4	177
2643.76	215
2644.13	223
2644.49	177
2644.85	191
2645.22	211
2645.58	205
2645.95	229
2646.31	233
2646.68	183
2647.04	229
2647.4	189
2647.77	213
2648.13	261
2648.5	205
2648.86	257
2649.22	209
2649.59	231
2649.95	223
2650.32	245
2650.68	205
2651.04	265
2651.41	183
2651.77	255
2652.14	229
2652.5	237
2652.86	243
2653.23	231
2653.59	273
2653.95	237
2654.32	259
2654.68	235
2655.05	299
2655.41	209
2655.77	305
2656.14	279
2656.5	261
2656.86	307
2657.23	229
2657.59	251
2657.95	225
2658.32	263
2658.68	233
2659.04	309
2659.41	235
2659.77	309
2660.13	255
2660.5	271
2660.86	289
2661.22	237
2661.59	247
2661.95	265
2662.31	301
2662.68	277
2663.04	297
2663.4	219
2663.76	333
2664.13	267
2664.49	289
2664.85	301
2665.22	249
2665.58	269
2665.94	245
2666.3	299
2666.67	259
2667.03	339
2667.39	221
2667.76	325
2668.12	265
2668.48	289
2668.84	323
2669.21	255
2669.57	291
2669.93	259
2670.29	283
2670.66	245
2671.02	285
2671.38	245
2671.74	271
2672.11	259
2672.47	235
2672.83	269
2673.19	239
2673.56	259
2673.92	275
2674.28	227
2674.64	285
2675	235
2675.37	245
2675.73	275
2676.09	273
2676.45	205
2676.81	261
2677.18	225
2677.54	289
2677.9	273
2678.26	217
2678.62	269
2678.99	217
2679.35	265
2679.71	221
2680.07	263
2680.43	215
2680.8	255
2681.16	187
2681.52	223
2681.88	221
2682.24	199
2682.6	257
2682.97	177
2683.33	275
2683.69	185
2684.05	253
2684.41	191
2684.77	231
2685.13	203
2685.5	211
2685.86	245
2686.22	173
2686.58	273
2686.94	161
2687.3	269
2687.66	183
2688.03	241
2688.39	193
2688.75	209
2689.11	173
2689.47	215
2689.83	195
2690.19	169
2690.55	215
2690.91	149
2691.28	195
2691.64	151
2692	193
2692.36	177
2692.72	189
2693.08	157
2693.44	207
2693.8	159
2694.16	163
2694.52	199
2694.88	153
2695.24	195
2695.61	147
2695.97	191
2696.33	187
2696.69	163
2697.05	143
2697.41	187
2697.77	161
2698.13	167
2698.49	191
2698.85	133
2699.21	197
2699.57	171
2699.93	163
2700.29	203
2700.65	147
2701.01	157
2701.37	170.2
2701.73	167
2702.09	177
2702.45	149
2702.81	159
2703.18	149
2703.53	177
2703.89	131
2704.25	173
2704.62	119
2704.98	145
2705.33	163
2705.69	135
2706.06	175
2706.42	147
2706.78	135
2707.13	149
2707.49	167
2707.85	129
2708.22	167
2708.57	105
2708.93	145
2709.29	129
2709.65	123
2710.01	173
2710.37	113
2710.73	165
2711.09	137
2711.45	171
2711.81	99
2712.17	189
2712.53	113
2712.89	165
2713.25	133
2713.61	131
2713.97	163
2714.33	89
2714.69	155
2715.05	147
2715.41	181
2715.76	103
2716.12	185
2716.48	97
2716.84	169
2717.2	145
2717.56	125
2717.92	157
2718.28	105
2718.64	155
2719	137
2719.35	163
2719.71	105
2720.07	165
2720.43	107
2720.79	153
2721.15	119
2721.51	119
2721.87	177
2722.23	107
2722.59	151
2722.94	129
2723.3	147
2723.66	123
2724.02	135
2724.38	117
2724.74	163
2725.1	95
2725.46	127
2725.81	159
2726.17	115
2726.53	135
2726.89	139
2727.25	107
2727.61	137
2727.96	119
2728.32	113
2728.68	149
2729.04	109
2729.4	121
2729.75	147
2730.11	109
2730.47	137
2730.83	133
2731.19	115
2731.55	129
2731.91	95
2732.26	135
2732.62	137
2732.98	109
2733.34	139
2733.69	155
2734.05	121
2734.41	109
2734.77	153
2735.13	95
2735.48	185
2735.84	79
2736.2	141
2736.56	121
2736.91	133
2737.27	141
2737.63	119
2737.99	123
2738.35	109
2738.7	155
2739.06	93
2739.42	169
2739.78	69
2740.13	143
2740.49	109
2740.85	129
2741.21	127
2741.56	127
2741.92	133
2742.28	127
2742.64	139
2742.99	105
2743.35	163
2743.71	71
2744.06	153
2744.42	119
2744.78	159
2745.14	161
2745.49	141
2745.85	109
2746.21	125
2746.57	153
2746.92	99
2747.28	177
2747.64	53
2747.99	179
2748.35	107
2748.71	131
2749.06	109
2749.42	101
2749.78	121
2750.13	137
2750.49	139
2750.85	107
2751.2	151
2751.56	75
2751.92	153
2752.27	119
2752.63	115
2752.99	123
2753.34	111
2753.7	123
2754.06	131
2754.41	113
2754.77	139
2755.13	139
2755.48	113
2755.84	145
2756.2	131
2756.55	119
2756.91	121
2757.26	97
2757.62	131
2757.98	145
2758.33	119
2758.69	133
2759.04	105
2759.4	103
2759.76	115
2760.11	113
2760.47	109
2760.83	133
2761.18	93
2761.54	139
2761.89	121
2762.25	119
2762.61	137
2762.96	115
2763.32	113
2763.67	113
2764.03	137
2764.38	93
2764.74	157
2765.1	97
2765.45	161
2765.81	131
2766.16	93
2766.52	153
2766.88	83
2767.23	133
2767.59	113
2767.94	145
2768.3	109
2768.65	155
2769.01	99
2769.36	133
2769.72	137
2770.07	83
2770.43	155
2770.78	71
2771.14	139
2771.49	99
2771.85	141
2772.21	83
2772.56	149
2772.92	63
2773.27	141
2773.63	117
2773.98	99
2774.34	161
2774.69	101
2775.05	153
2775.4	97
2775.76	151
2776.11	111
2776.47	149
2776.82	57
2777.18	141
2777.53	113
2777.89	121
2778.24	161
2778.59	79
2778.95	133
2779.3	77
2779.66	143
2780.01	109
2780.37	127
2780.72	91
2781.08	135
2781.43	117
2781.79	115
2782.14	145
2782.49	99
2782.85	143
2783.2	103
2783.56	115
2783.91	123
2784.27	105
2784.62	79
2784.98	139
2785.33	121
2785.68	131
2786.04	119
2786.39	93
2786.75	145
2787.1	135
2787.46	143
2787.81	141
2788.16	119
2788.52	95
2788.87	151
2789.22	133
2789.58	121
2789.93	117
2790.29	103
2790.64	133
2790.99	101
2791.35	103
2791.7	131
2792.06	75
2792.41	111
2792.76	117
2793.12	117
2793.47	123
2793.82	119
2794.18	111
2794.53	121
2794.88	151
2795.24	105
2795.59	157
2795.95	81
2796.3	117
2796.65	125
2797.01	117
2797.36	133
2797.71	99
2798.07	135
2798.42	123
2798.77	161
2799.13	89
2799.48	175
2799.83	79
2800.19	139
2800.54	127
2800.89	125
2801.24	125
2801.6	107
2801.95	115
2802.3	103
2802.66	131
2803.01	83
2803.36	169
2803.72	69
2804.07	161
2804.42	105
2804.77	141
2805.13	135
2805.48	93
2805.83	111
2806.19	113
2806.54	139
2806.89	75
2807.24	157
2807.6	85
2807.95	163
2808.3	85
2808.65	125
2809.01	129
2809.36	91
2809.71	133
2810.06	125
2810.42	123
2810.77	95
2811.12	161
2811.47	89
2811.83	153
2812.18	91
2812.53	109
2812.88	127
2813.24	93
2813.59	133
2813.94	131
2814.29	125
2814.64	107
2815	139
2815.35	89
2815.7	151
2816.05	107
2816.4	113
2816.76	133
2817.11	99
2817.46	99
2817.81	123
2818.16	103
2818.52	133
2818.87	107
2819.22	105
2819.57	129
2819.92	113
2820.28	111
2820.63	115
2820.98	97
2821.33	117
2821.68	143
2822.03	123
2822.39	143
2822.74	89
2823.09	145
2823.44	99
2823.79	121
2824.14	93
2824.49	143
2824.85	91
2825.2	121
2825.55	133
2825.9	103
2826.25	139
2826.6	87
2826.95	143
2827.31	107
2827.66	131
2828.01	97
2828.36	151
2828.71	87
2829.06	113
2829.41	121
2829.76	101
2830.11	161
2830.46	53
2830.82	159
2831.17	117
2831.52	119
2831.87	91
2832.22	135
2832.57	73
2832.92	139
2833.27	127
2833.62	119
2833.97	153
2834.32	53
2834.68	151
2835.03	89
2835.38	137
2835.73	89
2836.08	147
2836.43	67
2836.78	141
2837.13	101
2837.48	101
2837.83	153
2838.18	51
2838.53	167
2838.88	97
2839.23	145
2839.58	85
2839.93	117
2840.28	107
2840.63	131
2840.98	107
2841.33	111
2841.68	145
2842.03	89
2842.38	125
2842.73	123
2843.08	137
2843.43	119
2843.78	91
2844.13	109
2844.48	137
2844.83	103
2845.18	129
2845.53	123
2845.88	89
2846.23	131
2846.58	125
2846.93	103
2847.28	127
2847.63	85
2847.98	123
2848.33	137
2848.68	91
2849.03	127
2849.38	121
2849.73	119
2850.08	119
2850.43	117
2850.78	103
2851.13	135
2851.48	75
2851.83	129
2852.18	125
2852.53	109
2852.88	127
2853.23	111
2853.57	107
2853.92	109
2854.27	143
2854.62	83
2854.97	149
2855.32	69
2855.67	155
2856.02	105
2856.37	93
2856.72	139
2857.07	77
2857.42	117
2857.76	93
2858.11	123
2858.46	99
2858.81	161
2859.16	65
2859.51	131
2859.86	117
2860.21	101
2860.56	131
2860.91	97
2861.25	137
2861.6	77
2861.95	137
2862.3	99
2862.65	147
2863	61
2863.35	145
2863.69	97
2864.04	117
2864.39	139
2864.74	85
2865.09	117
2865.44	107
2865.78	141
2866.13	101
2866.48	147
2866.83	63
2867.18	155
2867.53	115
2867.88	127
2868.22	131
2868.57	73
2868.92	129
2869.27	103
2869.62	127
2869.96	107
2870.31	133
2870.66	57
2871.01	139
2871.36	113
2871.7	117
2872.05	127
2872.4	97
2872.75	133
2873.1	129
2873.44	117
2873.79	135
2874.14	101
2874.49	91
2874.84	141
2875.18	125
2875.53	121
2875.88	141
2876.23	97
2876.57	121
2876.92	131
2877.27	111
2877.62	149
2877.97	85
2878.31	105
2878.66	123
2879.01	117
2879.36	107
2879.7	107
2880.05	109
2880.4	139
2880.74	123
2881.09	99
2881.44	155
2881.79	73
2882.13	137
2882.48	117
2882.83	129
2883.18	97
2883.52	123
2883.87	107
2884.22	137
2884.56	139
2884.91	87
2885.26	171
2885.61	73
2885.95	153
2886.3	81
2886.65	137
2886.99	85
2887.34	119
2887.69	99
2888.03	139
2888.38	119
2888.73	83
2889.07	155
2889.42	57
2889.77	137
2890.11	81
2890.46	137
2890.81	107
2891.15	121
2891.5	111
2891.85	133
2892.19	107
2892.54	95
2892.89	149
2893.23	63
2893.58	135
2893.93	95
2894.27	139
2894.62	119
2894.96	133
2895.31	109
2895.66	133
2896	113
2896.35	95.21
2896.7	146.835
2897.04	80.0822
2897.39	138.185
2897.73	79.9339
2898.08	114.568
2898.43	130.973
2898.77	101.577
2899.12	88.9007
2899.46	120.646
2899.81	107.687
2900.16	106.065
2900.5	111.25
2900.85	93.4133
2901.19	120.669
2901.54	113.778
2901.88	103.413
2902.23	140.145
2902.58	92.5826
2902.92	103.184
2903.27	125.087
2903.61	121.906
2903.96	125.497
2904.31	103.366
2904.65	106.235
2905	109.363
2905.34	127.695
2905.69	92.582
2906.03	141.166
2906.38	100.287
2906.72	112.323
2907.07	126.749
2907.42	108.84
2907.76	131.981
2908.11	98.8307
2908.45	108.834
2908.8	119.957
2909.14	115.968
2909.49	91.48
2909.83	140.79
2910.18	87.6551
2910.52	134.015
2910.87	109.365
2911.21	101.99
2911.56	130.805
2911.9	96.2158
2912.25	98.6693
2912.59	119.735
2912.94	110.456
2913.28	97.5301
2913.63	133.314
2913.97	97.299
2914.32	118.33
2914.66	111.181
2915.01	124.7
2915.35	136.526
2915.7	107.732
2916.04	116.567
2916.39	113.487
2916.73	111.114
2917.08	101.041
2917.42	123.417
2917.77	104.895
2918.11	129.727
2918.46	123.626
2918.8	102.661
2919.15	114.616
2919.49	113.309
2919.83	106.397
2920.18	116.074
2920.52	111.844
2920.87	93.7981
2921.21	123.654
2921.56	101.633
2921.9	121.472
2922.24	108.51
2922.59	100.548
2922.93	103.257
2923.28	115.961
2923.62	111.794
2923.97	110.106
2924.31	107.92
2924.65	90.7758
2925	118.758
2925.34	89.109
2925.69	120.19
2926.03	116.249
2926.38	116.733
2926.72	114.629
2927.06	126.186
2927.41	103.725
2927.75	118.023
2928.09	141.839
2928.44	75.1403
2928.78	123.093
2929.13	104.42
2929.47	142.293
2929.81	121.674
2930.16	126.196
2930.5	84.8443
2930.79	125
2931.14	109
2931.49	85
2931.84	157
2932.19	83
2932.54	141
2932.88	89
2933.23	117
2933.58	123
2933.93	99
2934.28	91
2934.63	129
2934.97	115
2935.32	101
2935.67	127
2936.02	81
2936.37	119
2936.71	109
2937.06	109
2937.41	135
2937.76	95
2938.11	95
2938.46	135
2938.8	119
2939.15	119
2939.5	101
2939.85	103
2940.19	119
2940.54	133
2940.89	105
2941.24	161
2941.59	87
2941.93	97
2942.28	119
2942.63	113
2942.98	123
2943.32	87
2943.67	107
2944.02	121
2944.37	129
2944.72	95
2945.06	155
2945.41	85
2945.76	145
2946.11	119
2946.45	113
2946.8	123
2947.15	83
2947.49	123
2947.84	105
2948.19	141
2948.54	63
2948.88	171
2949.23	39
2949.58	149
2949.93	107
2950.27	103
2950.62	127
2950.97	91
2951.31	129
2951.66	107
2952.01	145
2952.35	63
2952.7	143
2953.05	67
2953.4	149
2953.74	101
2954.09	121
2954.44	111
2954.78	109
2955.13	111
2955.48	127
2955.82	141
2956.17	61
2956.52	133
2956.86	61
2957.21	157
2957.56	99
2957.9	133
2958.25	127
2958.6	101
2958.94	125
2959.29	139
2959.64	127
2959.98	81
2960.33	137
2960.68	73
2961.02	141
2961.37	87
2961.72	115
2962.06	133
2962.41	121
2962.76	109
2963.1	125
2963.45	129
2963.79	111
2964.14	121
2964.49	97
2964.83	133
2965.18	99
2965.52	109
2965.87	129
2966.22	83
2966.56	105
2966.91	119
2967.25	107
2967.6	129
2967.95	105
2968.29	91
2968.64	121
2968.98	111
2969.33	121
2969.68	139
2970.02	97
2970.37	99
2970.71	133
2971.06	125
2971.4	145
2971.75	91
2972.1	111
2972.44	107
2972.79	121
2973.13	109
2973.48	149
2973.82	79
2974.17	101
2974.51	119
2974.86	97
2975.21	129
2975.55	55
2975.9	129
2976.24	103
2976.59	133
2976.93	67
2977.28	151
2977.62	69
2977.97	131
2978.31	131
2978.66	105
2979	155
2979.35	57
2979.69	123
2980.04	99
2980.38	137
2980.73	75
2981.07	149
2981.42	99
2981.76	135
2982.11	127
2982.45	101
2982.8	173
2983.14	73
2983.49	133
2983.83	93
2984.18	131
2984.52	103
2984.87	129
2985.21	89
2985.56	133
2985.9	129
2986.25	111
2986.59	143
2986.94	51
2987.28	135
2987.62	95
2987.97	147
2988.31	93
2988.66	137
2989	87
2989.35	149
2989.69	119
2990.03	101
2990.38	153
2990.72	75
2991.07	157
2991.41	111
2991.76	131
2992.1	89
2992.44	127
2992.79	107
2993.13	135
2993.48	119
2993.82	125
2994.17	151
2994.51	85
2994.85	119
2995.2	111
2995.54	105
2995.89	109
2996.23	107
2996.57	105
2996.92	143
2997.26	119
2997.6	113
2997.95	129
2998.29	93
2998.64	139
2998.98	131
2999.32	119
2999.67	133
