#Acq. time (s)=	30
#Accumulations=	1
#Range (cm-¹)=	1050...3000 (30 s) 
#Windows=	6
#Auto scanning=	Off
#Autofocus=	Off
#AutoExposure=	Off
#Spike filter=	Off
#Delay time (s)=	0
#Binning=	1
#Readout mode=	Signal
#DeNoise=	Off
#ICS correction=	Off
#Dark correction=	Off
#Inst. Process=	Off
#Detector Gain=	High Sensitivity
#Detector ADC=	45 kHz       
#Detector temperature (°C)=	-60.1
#Instrument=	LabRAM
#Detector=	Syncerity
#Objective=	x50LWD
#Grating=	1800
#Filter=	25%
#Laser (nm)=	532
#Hole=	100
#E-Cal_Neon=	0
#StageXY=	Marzhauser
#StageZ=	Marzhauser
#X (µm)=	0
#Y (µm)=	0
#Z (µm)=	-1678.85
#Spectral res.(cm-¹)=	1.9
#Full time(mm:ss)=	3:09
#AC=	Not calibrated
#Project=	
#Sample=	
#Site=	
#Title=	Spot 2 300K REVERSE
#Remark=	
#Date=	19.02.2026 16:23
#Acquired=	19.02.2026 16:23:36
#Edit:Spike=	19.02.2026 16:24:10
#Edit:Spike=	19.02.2026 16:25:12
#Edit:Spike=	19.02.2026 16:25:43
#AxisType[0]=Intens
#AxisUnit[0]=Cnt
#AxisType[1]=Spectr
#AxisUnit[1]=1/cm
1050.13	167
1050.59	87
1051.05	165
1051.51	133
1051.97	131
1052.44	177
1052.9	105
1053.36	141
1053.82	101
1054.28	167
1054.74	137
1055.2	183
1055.67	109
1056.13	165
1056.59	139
1057.05	105
1057.51	185
1057.97	71
1058.43	185
1058.89	105
1059.36	155
1059.82	153
1060.28	99
1060.74	129
1061.2	147
1061.66	141
1062.12	137
1062.58	157
1063.04	125
1063.5	153
1063.96	121
1064.43	145
1064.89	159
1065.35	123
1065.81	133
1066.27	163
1066.73	131
1067.19	173
1067.65	111
1068.11	141
1068.57	129
1069.03	125
1069.49	153
1069.95	119
1070.41	133
1070.87	121
1071.33	167
1071.79	123
1072.25	175
1072.71	103
1073.17	155
1073.63	153
1074.09	101
1074.55	173
1075.01	101
1075.47	149
1075.93	111
1076.39	149
1076.85	141
1077.31	161
1077.77	95
1078.23	167
1078.69	143
1079.15	123
1079.61	163
1080.07	109
1080.53	161
1080.99	133
1081.45	121
1081.91	165
1082.37	133
1082.83	141
1083.29	151
1083.75	145
1084.21	141
1084.66	133
1085.12	99
1085.58	149
1086.04	127
1086.5	131
1086.96	159
1087.42	109
1087.88	125
1088.34	159
1088.8	113
1089.25	171
1089.71	107
1090.17	159
1090.63	137
1091.09	123
1091.55	153
1092.01	131
1092.47	133
1092.92	109
1093.38	149
1093.84	121
1094.3	179
1094.76	109
1095.22	203
1095.68	153
1096.13	113
1096.59	173
1097.05	109
1097.51	177
1097.97	89
1098.43	153
1098.88	123
1099.34	143
1099.8	111
1100.26	159
1100.72	141
1101.17	115
1101.63	175
1102.09	91
1102.55	171
1103.01	109
1103.46	137
1103.92	151
1104.38	115
1104.84	129
1105.29	143
1105.75	147
1106.21	153
1106.67	149
1107.12	121
1107.58	139
1108.04	123
1108.5	127
1108.95	155
1109.41	111
1109.87	143
1110.33	145
1110.78	123
1111.24	191
1111.7	99
1112.16	171
1112.61	129
1113.07	133
1113.53	141
1113.98	95
1114.44	153
1114.9	113
1115.35	169
1115.81	133
1116.27	187
1116.72	101
1117.18	173
1117.64	125
1118.1	125
1118.55	173
1119.01	89
1119.47	167
1119.92	113
1120.38	161
1120.84	133
1121.29	155
1121.75	109
1122.2	169
1122.66	135
1123.12	139
1123.57	175
1124.03	123
1124.49	159
1124.94	121
1125.4	131
1125.86	175
1126.31	133
1126.77	127
1127.22	167
1127.68	135
1128.14	155
1128.59	123
1129.05	145
1129.5	159
1129.96	145
1130.41	139
1130.87	169
1131.33	125
1131.78	123
1132.24	159
1132.69	121
1133.15	173
1133.61	83
1134.06	167
1134.52	143
1134.97	123
1135.43	149
1135.88	117
1136.34	133
1136.79	111
1137.25	145
1137.7	129
1138.16	189
1138.61	93
1139.07	177
1139.52	129
1139.98	143
1140.43	169
1140.89	109
1141.34	151
1141.8	115
1142.25	153
1142.71	147
1143.16	153
1143.62	107
1144.07	155
1144.53	151
1144.98	141
1145.44	145
1145.89	105
1146.35	157
1146.8	145
1147.26	155
1147.71	165
1148.16	109
1148.62	123
1149.07	163
1149.53	147
1149.98	165
1150.44	125
1150.89	131
1151.35	135
1151.8	143
1152.25	137
1152.71	155
1153.16	111
1153.62	137
1154.07	161
1154.52	111
1154.98	191
1155.43	77
1155.89	185
1156.34	119
1156.79	153
1157.25	145
1157.7	123
1158.16	131
1158.61	117
1159.06	157
1159.52	117
1159.97	175
1160.42	89
1160.88	171
1161.33	131
1161.78	129
1162.24	159
1162.69	101
1163.14	161
1163.6	149
1164.05	155
1164.5	147
1164.96	127
1165.41	121
1165.86	169
1166.32	131
1166.77	123
1167.22	169
1167.68	113
1168.13	153
1168.58	133
1169.04	147
1169.49	163
1169.94	119
1170.39	141
1170.85	177
1171.3	135
1171.75	173
1172.2	103
1172.66	143
1173.11	123
1173.56	143
1174.01	119
1174.47	171
1174.92	113
1175.37	127
1175.82	157
1176.28	83
1176.73	189
1177.18	75
1177.63	159
1178.09	123
1178.54	165
1178.99	157
1179.44	129
1179.89	163
1180.35	127
1180.8	157
1181.25	129
1181.7	161
1182.15	81
1182.61	183
1183.06	137
1183.51	157
1183.96	155
1184.41	119
1184.87	149
1185.32	139
1185.77	169
1186.22	153
1186.67	141
1187.12	111
1187.58	171
1188.03	143
1188.48	161
1188.93	155
1189.38	131
1189.83	137
1190.28	137
1190.73	159
1191.19	171
1191.64	97
1192.09	113
1192.54	149
1192.99	135
1193.44	161
1193.89	115
1194.34	129
1194.8	115
1195.25	147
1195.7	133
1196.15	159
1196.6	113
1197.05	127
1197.5	171
1197.95	115
1198.4	191
1198.85	91
1199.3	163
1199.75	115
1200.2	141
1200.66	155
1201.11	143
1201.56	151
1202.01	127
1202.46	155
1202.91	101
1203.36	169
1203.81	91
1204.26	161
1204.71	119
1205.16	137
1205.61	155
1206.06	119
1206.51	153
1206.96	133
1207.41	139
1207.86	145
1208.31	127
1208.76	111
1209.21	141
1209.66	151
1210.11	145
1210.56	129
1211.01	125
1211.46	135
1211.91	161
1212.36	135
1212.81	185
1213.26	109
1213.71	135
1214.16	179
1214.61	143
1215.05	167
1215.51	83
1215.95	171
1216.4	133
1216.85	173
1217.3	129
1217.75	151
1218.2	129
1218.65	125
1219.1	165
1219.55	113
1220	173
1220.45	87
1220.9	163
1221.34	129
1221.79	137
1222.24	133
1222.69	113
1223.14	125
1223.59	133
1224.04	143
1224.49	131
1224.94	167
1225.38	99
1225.83	173
1226.28	123
1226.73	151
1227.18	149
1227.63	111
1228.07	145
1228.52	153
1228.97	141
1229.42	157
1229.87	131
1230.32	111
1230.76	159
1231.21	127
1231.66	143
1232.11	129
1232.56	111
1233.01	145
1233.45	165
1233.9	119
1234.35	165
1234.8	93
1235.25	145
1235.69	177
1236.14	141
1236.59	177
1237.04	87
1237.49	153
1237.93	151
1238.38	175
1238.83	119
1239.28	143
1239.72	129
1240.17	135
1240.62	151
1241.07	117
1241.51	185
1241.96	69
1242.41	181
1242.86	119
1243.3	159
1243.75	151
1244.2	143
1244.65	147
1245.09	131
1245.54	139
1245.99	119
1246.44	157
1246.88	79
1247.33	163
1247.78	149
1248.22	141
1248.67	145
1249.12	103
1249.56	153
1250.01	147
1250.46	159
1250.9	193
1251.35	113
1251.8	137
1252.24	169
1252.69	155
1253.14	141
1253.58	121
1254.03	151
1254.48	151
1254.92	171
1255.37	121
1255.82	183
1256.26	97
1256.71	157
1257.15	151
1257.6	121
1258.05	187
1258.49	73
1258.94	163
1259.39	133
1259.83	179
1260.28	139
1260.72	173
1261.17	139
1261.62	139
1262.06	151
1262.51	111
1262.95	195
1263.4	77
1263.85	163
1264.29	147
1264.74	153
1265.18	153
1265.63	127
1266.07	165
1266.52	145
1266.97	149
1267.41	149
1267.86	135
1268.3	125
1268.75	171
1269.19	125
1269.64	133
1270.08	147
1270.53	131
1270.97	147
1271.42	157
1271.86	127
1272.31	157
1272.76	103
1273.2	135
1273.64	159
1274.09	141
1274.53	161
1274.98	113
1275.42	165
1275.87	155
1276.31	143
1276.76	127
1277.2	179
1277.65	123
1278.09	145
1278.54	161
1278.98	135
1279.43	171
1279.87	95
1280.32	169
1280.76	137
1281.21	157
1281.65	127
1282.09	161
1282.54	121
1282.98	119
1283.43	143
1283.87	115
1284.32	175
1284.76	97
1285.21	175
1285.65	125
1286.09	151
1286.54	169
1286.98	141
1287.42	161
1287.87	133
1288.31	187
1288.76	133
1289.2	147
1289.64	113
1290.09	161
1290.53	165
1290.98	151
1291.42	153
1291.86	109
1292.31	159
1292.75	151
1293.19	161
1293.64	173
1294.08	117
1294.53	123
1294.97	139
1295.41	151
1295.85	163
1296.3	127
1296.74	149
1297.19	135
1297.63	201
1298.07	111
1298.51	181
1298.96	99
1299.4	149
1299.84	163
1300.29	141
1300.73	213
1301.17	83
1301.62	175
1302.06	145
1302.5	173
1302.94	129
1303.39	127
1303.83	115
1304.27	143
1304.72	179
1305.16	125
1305.6	193
1306.04	75
1306.49	161
1306.93	141
1307.37	133
1307.81	147
1308.26	109
1308.7	161
1309.14	161
1309.58	167
1310.03	155
1310.47	137
1310.91	129
1311.35	167
1311.8	157
1312.24	163
1312.68	147
1313.12	127
1313.56	143
1314	169
1314.45	113
1314.89	183
1315.33	127
1315.77	139
1316.22	173
1316.66	143
1317.1	183
1317.54	97
1317.98	157
1318.43	137
1318.87	153
1319.31	105
1319.75	179
1320.19	95
1320.63	129
1321.07	139
1321.51	109
1321.96	175
1322.4	63
1322.84	171
1323.28	155
1323.72	161
1324.16	121
1324.6	153
1325.05	143
1325.49	157
1325.93	141
1326.37	129
1326.81	175
1327.25	101
1327.69	189
1328.13	139
1328.57	155
1329.02	171
1329.45	109
1329.9	127
1330.34	169
1330.78	141
1331.22	163
1331.66	133
1332.1	127
1332.54	171
1332.98	133
1333.42	123
1333.86	147
1334.3	149
1334.74	157
1335.18	157
1335.62	125
1336.07	195
1336.5	93
1336.95	151
1337.39	183
1337.83	151
1338.27	161
1338.71	133
1339.15	171
1339.59	161
1340.03	203
1340.47	113
1340.91	197
1341.35	103
1341.79	175
1342.23	161
1342.67	141
1343.11	207
1343.55	107
1343.99	181
1344.43	141
1344.86	189
1345.31	133
1345.74	177
1346.18	153
1346.62	187
1347.06	181
1347.5	147
1347.94	183
1348.38	109
1348.82	177
1349.26	141
1349.7	165
1350.14	153
1350.58	131
1351.02	165
1351.46	177
1351.9	149
1352.33	175
1352.77	139
1353.21	149
1353.65	159
1354.09	141
1354.53	159
1354.97	155
1355.41	163
1355.85	147
1356.29	199
1356.72	117
1357.16	189
1357.6	95
1358.04	149
1358.48	149
1358.92	151
1359.36	175
1359.79	103
1360.23	181
1360.67	157
1361.11	195
1361.55	117
1361.99	183
1362.43	123
1362.87	171
1363.3	143
1363.74	145
1364.18	197
1364.62	97
1365.06	183
1365.49	159
1365.93	179
1366.37	151
1366.81	155
1367.25	147
1367.68	161
1368.12	135
1368.56	141
1369	165
1369.44	101
1369.87	169
1370.31	141
1370.75	151
1371.19	161
1371.62	145
1372.06	149
1372.5	143
1372.94	137
1373.37	157
1373.81	125
1374.25	147
1374.69	179
1375.12	153
1375.56	177
1376	143
1376.44	135
1376.87	169
1377.31	157
1377.75	127
1378.19	207
1378.62	99
1379.06	159
1379.5	159
1379.93	141
1380.37	181
1380.81	95
1381.25	151
1381.68	135
1382.12	163
1382.56	109
1382.99	169
1383.43	111
1383.87	167
1384.3	159
1384.74	117
1385.18	159
1385.61	77
1386.05	171
1386.49	113
1386.92	161
1387.36	129
1387.8	135
1388.23	131
1388.67	163
1389.1	155
1389.54	141
1389.98	151
1390.41	95
1390.85	167
1391.29	141
1391.72	149
1392.16	165
1392.59	115
1393.03	155
1393.47	151
1393.9	117
1394.34	167
1394.77	99
1395.21	153
1395.65	161
1396.08	169
1396.52	157
1396.95	117
1397.39	129
1397.82	141
1398.26	181
1398.7	107
1399.13	201
1399.57	103
1400	157
1400.44	149
1400.87	147
1401.31	171
1401.74	89
1402.18	179
1402.62	153
1403.05	161
1403.49	93
1403.92	159
1404.36	131
1404.79	155
1405.23	133
1405.66	147
1406.1	163
1406.53	93
1406.97	165
1407.4	151
1407.84	131
1408.27	151
1408.71	133
1409.14	145
1409.58	169
1410.01	115
1410.45	143
1410.88	127
1411.31	123
1411.75	157
1412.18	163
1412.62	115
1413.05	153
1413.49	121
1413.92	151
1414.36	181
1414.79	107
1415.23	189
1415.66	103
1416.1	163
1416.53	139
1416.96	157
1417.4	129
1417.83	129
1418.27	123
1418.7	143
1419.13	153
1419.57	107
1420	169
1420.44	73
1420.87	169
1421.3	129
1421.74	129
1422.17	157
1422.61	115
1423.04	153
1423.47	151
1423.91	175
1424.34	103
1424.77	171
1425.21	105
1425.64	169
1426.07	119
1426.51	143
1426.94	157
1427.38	121
1427.81	163
1428.24	139
1428.68	139
1429.11	137
1429.54	113
1429.98	117
1430.41	135
1430.84	137
1431.28	137
1431.71	135
1432.14	141
1432.57	151
1433.01	169
1433.44	133
1433.87	153
1434.31	127
1434.74	141
1435.17	161
1435.61	95
1436.04	171
1436.47	91
1436.9	155
1437.34	129
1437.77	167
1438.2	123
1438.63	149
1439.07	137
1439.5	157
1439.93	171
1440.36	111
1440.8	187
1441.23	85
1441.66	179
1442.09	129
1442.53	141
1442.96	149
1443.39	113
1443.82	135
1444.26	137
1444.69	157
1445.12	121
1445.55	147
1445.98	107
1446.42	153
1446.85	123
1447.28	147
1447.71	165
1448.14	95
1448.57	141
1449.01	139
1449.44	147
1449.87	139
1450.3	115
1450.73	139
1451.17	147
1451.6	149
1452.03	159
1452.46	137
1452.89	153
1453.32	153
1453.76	169
1454.19	125
1454.62	149
1455.05	133
1455.48	147
1455.91	169
1456.34	101
1456.77	185
1457.21	109
1457.64	153
1458.07	129
1458.5	131.235
1458.93	127.047
1459.36	140.775
1459.79	144.958
1460.22	144.216
1460.65	164.009
1461.08	101.891
1461.52	184.696
1461.95	110.589
1462.38	166.261
1462.81	136.205
1463.24	137.618
1463.67	159.179
1464.1	118.294
1464.53	158.931
1464.96	153.265
1465.39	150.244
1465.82	126.597
1466.25	147.825
1466.68	117.121
1467.11	161.705
1467.54	124.086
1467.98	133.226
1468.41	170.965
1468.84	124.058
1469.27	165.647
1469.7	157.686
1470.13	139.625
1470.56	119.131
1470.99	135.072
1471.42	134.347
1471.85	153.002
1472.28	115.049
1472.71	149.565
1473.14	136.82
1473.57	153.609
1474	143.02
1474.43	135.46
1474.86	133.292
1475.29	151.889
1475.72	133.142
1476.15	147.785
1476.58	147.85
1477.01	135.019
1477.44	146.914
1477.87	131.059
1478.3	160.776
1478.72	140.771
1479.15	138.843
1479.58	147.071
1480.01	134.676
1480.44	146.894
1480.87	150.602
1481.3	141.167
1481.73	137.102
1482.16	150.365
1482.59	136.805
1483.02	157.546
1483.45	141.67
1483.88	140.67
1484.31	141.989
1484.74	115.784
1485.17	154.689
1485.59	138.749
1486.02	147.246
1486.45	139.889
1486.88	114.016
1487.31	145.417
1487.74	149.518
1488.17	139.183
1488.6	146.861
1489.02	135.575
1489.45	140.538
1489.88	154.795
1490.31	125.925
1490.74	145.773
1491.17	139.354
1491.6	125.336
1492.03	147.406
1492.45	150.271
1492.88	144.145
1493.31	141.339
1493.74	134.325
1494.17	148.934
1494.6	140.761
1495.02	125.391
1495.45	145.508
1495.88	130.288
1496.31	134.978
1496.74	155.547
1497.17	147.428
1497.59	150.017
1498.02	133.308
1498.45	129.615
1498.88	147.811
1499.31	142.587
1499.73	129.727
1500.16	138.61
1500.59	147.57
1501.02	137.455
1501.45	154.777
1501.87	126.734
1502.13	129
1502.56	159
1502.99	95
1503.43	171
1503.86	123
1504.29	183
1504.72	127
1505.16	143
1505.59	117
1506.02	179
1506.46	149
1506.89	137
1507.32	181
1507.75	93
1508.19	179
1508.62	139
1509.05	141
1509.49	163
1509.92	127
1510.35	155
1510.78	181
1511.21	117
1511.65	153
1512.08	133
1512.51	125
1512.94	139
1513.38	147
1513.81	121
1514.24	131
1514.67	135
1515.11	143
1515.54	181
1515.97	111
1516.4	193
1516.83	111
1517.27	163
1517.7	145
1518.13	155
1518.56	145
1518.99	129
1519.42	139
1519.86	153
1520.29	185
1520.72	117
1521.15	203
1521.58	109
1522.01	161
1522.45	127
1522.88	151
1523.31	155
1523.74	141
1524.17	165
1524.6	153
1525.04	173
1525.47	109
1525.9	163
1526.33	107
1526.76	187
1527.19	143
1527.62	137
1528.05	157
1528.49	131
1528.92	167
1529.35	157
1529.78	161
1530.21	139
1530.64	167
1531.07	141
1531.5	179
1531.93	133
1532.37	165
1532.8	165
1533.23	149
1533.66	147
1534.09	179
1534.52	149
1534.95	163
1535.38	123
1535.81	185
1536.24	167
1536.67	147
1537.1	167
1537.53	129
1537.96	177
1538.39	139
1538.82	167
1539.26	139
1539.68	171
1540.12	111
1540.55	161
1540.98	155
1541.41	133
1541.84	191
1542.27	125
1542.7	185
1543.13	127
1543.56	183
1543.99	129
1544.42	163
1544.85	147
1545.28	147
1545.71	165
1546.14	117
1546.57	189
1547	115
1547.43	189
1547.86	131
1548.29	173
1548.72	189
1549.14	137
1549.57	153
1550.01	173
1550.43	157
1550.86	157
1551.29	169
1551.72	189
1552.15	149
1552.58	141
1553.01	167
1553.44	185
1553.87	171
1554.3	147
1554.73	191
1555.16	153
1555.59	199
1556.01	127
1556.44	167
1556.87	133
1557.3	137
1557.73	171
1558.16	149
1558.59	149
1559.02	135
1559.45	169
1559.88	157
1560.3	191
1560.73	127
1561.16	201
1561.59	173
1562.02	143
1562.45	171
1562.88	139
1563.31	183
1563.73	127
1564.16	197
1564.59	137
1565.02	195
1565.45	123
1565.88	197
1566.3	175
1566.73	143
1567.16	205
1567.59	147
1568.02	185
1568.45	137
1568.88	205
1569.3	181
1569.73	179
1570.16	151
1570.59	207
1571.01	171
1571.44	177
1571.87	171
1572.3	167
1572.73	225
1573.15	177
1573.58	183
1574.01	185
1574.44	153
1574.87	189
1575.29	199
1575.72	193
1576.15	219
1576.58	167
1577	191
1577.43	201
1577.86	197
1578.29	191
1578.71	205
1579.14	189
1579.57	215
1580	229
1580.42	201
1580.85	263
1581.28	201
1581.71	253
1582.13	207
1582.56	219
1582.99	277.24
1583.41	247.848
1583.84	239.218
1584.27	201
1584.7	251
1585.12	207
1585.55	259
1585.98	209
1586.4	253
1586.83	245
1587.26	239
1587.68	283
1588.11	243
1588.54	277
1588.96	243
1589.39	305
1589.82	313
1590.24	317
1590.67	321
1591.1	363
1591.52	373
1591.95	369
1592.38	387
1592.8	427
1593.23	475
1593.65	445
1594.08	529
1594.51	569
1594.93	587
1595.36	581
1595.79	657
1596.21	683
1596.64	715
1597.06	667
1597.49	709
1597.92	735
1598.34	669
1598.77	699
1599.19	703
1599.62	687
1600.05	611
1600.47	621
1600.9	557
1601.32	583
1601.75	457
1602.18	499
1602.6	457
1603.03	425
1603.45	393
1603.88	357
1604.3	401
1604.73	315
1605.15	337
1605.58	295
1606	303
1606.43	239
1606.86	269
1607.28	235
1607.71	231
1608.13	253
1608.56	219
1608.98	237
1609.41	165
1609.83	223
1610.26	187
1610.68	219
1611.11	159
1611.53	225
1611.96	161
1612.38	169
1612.81	203
1613.23	167
1613.66	221
1614.08	157
1614.51	187
1614.93	197
1615.36	161
1615.78	139
1616.21	179
1616.63	191
1617.06	169
1617.48	161
1617.9	167
1618.33	169
1618.75	167
1619.18	183
1619.6	183
1620.03	117
1620.45	161
1620.88	169
1621.3	121
1621.72	205
1622.15	127
1622.57	189
1623	145
1623.42	163
1623.85	137
1624.27	193
1624.69	139
1625.12	131
1625.54	201
1625.97	139
1626.39	197
1626.81	105
1627.24	197
1627.66	129
1628.08	163
1628.51	153
1628.93	139
1629.36	177
1629.78	125
1630.2	169
1630.63	123
1631.05	175
1631.47	101
1631.9	169
1632.32	155
1632.74	157
1633.17	177
1633.59	137
1634.01	141
1634.44	155
1634.86	129
1635.28	149
1635.71	125
1636.13	99
1636.55	169
1636.98	145
1637.4	141
1637.82	145
1638.25	137
1638.67	163
1639.09	153
1639.51	139
1639.94	199
1640.36	125
1640.78	137
1641.21	153
1641.63	125
1642.05	147
1642.47	113
1642.9	129
1643.32	141
1643.74	141
1644.17	123
1644.59	159
1645.01	105
1645.43	153
1645.86	139
1646.28	119
1646.7	179
1647.12	85
1647.55	165
1647.97	119
1648.39	181
1648.81	123
1649.23	157
1649.66	119
1650.08	149
1650.5	161
1650.92	121
1651.35	187
1651.77	59
1652.19	163
1652.61	129
1653.03	161
1653.45	131
1653.88	109
1654.3	157
1654.72	141
1655.14	145
1655.56	127
1655.99	147
1656.41	111
1656.83	171
1657.25	153
1657.67	115
1658.09	137
1658.52	95
1658.94	155
1659.36	131
1659.78	105
1660.2	167
1660.62	109
1661.04	123
1661.47	151
1661.89	129
1662.31	141
1662.73	127
1663.15	137
1663.57	125
1663.99	171
1664.41	109
1664.83	185
1665.26	103
1665.68	135
1666.1	155
1666.52	125
1666.94	183
1667.36	77
1667.78	153
1668.2	131
1668.62	157
1669.04	113
1669.46	145
1669.89	111
1670.31	123
1670.73	149
1671.15	111
1671.57	175
1671.99	65
1672.41	163
1672.83	125
1673.25	137
1673.67	105
1674.09	133
1674.51	117
1674.93	137
1675.35	137
1675.77	127
1676.19	143
1676.61	79
1677.03	173
1677.45	119
1677.87	139
1678.29	123
1678.71	119
1679.13	139
1679.55	149
1679.97	129
1680.39	149
1680.81	115
1681.23	89
1681.65	129
1682.07	127
1682.49	113
1682.91	103
1683.33	107
1683.75	141
1684.17	147
1684.59	93
1685.01	153
1685.43	71
1685.85	143
1686.27	153
1686.69	123
1687.11	161
1687.53	95
1687.95	145
1688.37	135
1688.78	165
1689.2	99
1689.62	167
1690.04	79
1690.46	153
1690.88	133
1691.3	111
1691.72	171
1692.14	69
1692.56	177
1692.98	113
1693.39	157
1693.81	97
1694.23	127
1694.65	97
1695.07	129
1695.49	135
1695.91	109
1696.33	167
1696.75	73
1697.16	177
1697.58	115
1698	129
1698.42	123
1698.84	113
1699.26	121
1699.68	137
1700.09	129
1700.51	129
1700.93	121
1701.35	103
1701.77	151
1702.19	141
1702.6	133
1703.02	141
1703.44	129
1703.86	129
1704.28	149
1704.69	115
1705.11	157
1705.53	95
1705.95	123
1706.37	131
1706.78	123
1707.2	157
1707.62	97
1708.04	113
1708.46	119
1708.87	153
1709.29	89
1709.71	169
1710.13	87
1710.54	129
1710.96	131
1711.38	117
1711.8	161
1712.22	71
1712.63	153
1713.05	141
1713.47	139
1713.89	113
1714.3	167
1714.72	101
1715.14	141
1715.56	115
1715.97	111
1716.39	127
1716.81	77
1717.22	159
1717.64	117
1718.06	137
1718.48	107
1718.89	129
1719.31	109
1719.73	147
1720.14	107
1720.56	127
1720.98	139
1721.39	113
1721.81	161
1722.23	149
1722.64	137
1723.06	117
1723.48	129
1723.89	131
1724.31	135
1724.73	107
1725.14	139
1725.56	95
1725.98	117
1726.39	127
1726.81	143
1727.23	115
1727.64	121
1728.06	99
1728.48	127
1728.89	157
1729.31	87
1729.72	187
1730.14	73
1730.56	165
1730.97	121
1731.39	153
1731.8	147
1732.22	97
1732.64	127
1733.05	125
1733.47	127
1733.89	93
1734.3	163
1734.72	93
1735.13	161
1735.55	131
1735.96	115
1736.38	141
1736.8	97
1737.21	161
1737.63	111
1738.04	149
1738.46	129
1738.87	133
1739.29	113
1739.71	173
1740.12	127
1740.54	107
1740.95	155
1741.37	113
1741.78	139
1742.2	133
1742.61	103
1743.03	121
1743.44	89
1743.86	129
1744.27	151
1744.69	117
1745.1	149
1745.52	99
1745.93	141
1746.35	127
1746.77	141
1747.18	123
1747.59	131
1748.01	117
1748.42	119
1748.84	131
1749.25	89
1749.67	167
1750.08	67
1750.5	135
1750.91	117
1751.33	147
1751.74	127
1752.16	109
1752.57	129
1752.99	131
1753.4	143
1753.81	95
1754.23	157
1754.64	81
1755.06	131
1755.47	117
1755.89	137
1756.3	147
1756.72	95
1757.13	129
1757.54	129
1757.96	147
1758.37	97
1758.78	141
1759.2	97
1759.61	145
1760.03	111
1760.44	137
1760.86	137
1761.27	91
1761.68	149
1762.1	131
1762.51	137
1762.92	103
1763.34	109
1763.75	129
1764.17	137
1764.58	121
1764.99	127
1765.41	125
1765.82	123
1766.23	139
1766.65	135
1767.06	105
1767.47	137
1767.89	111
1768.3	139
1768.71	137
1769.13	91
1769.54	165
1769.95	93
1770.37	147
1770.78	111
1771.19	153
1771.61	113
1772.02	119
1772.43	139
1772.85	131
1773.26	143
1773.67	77
1774.09	175
1774.5	69
1774.91	155
1775.32	127
1775.74	127
1776.15	125
1776.56	83
1776.97	129
1777.39	135
1777.8	131
1778.21	97
1778.62	149
1779.04	95
1779.45	149
1779.86	95
1780.28	107
1780.69	139
1781.1	97
1781.51	161
1781.92	127
1782.34	125
1782.75	115
1783.16	105
1783.57	119
1783.99	131
1784.4	99
1784.81	131
1785.22	115
1785.63	103
1786.05	121
1786.46	157
1786.87	107
1787.28	141
1787.69	95
1788.11	137
1788.52	141
1788.93	87
1789.34	163
1789.75	109
1790.17	137
1790.58	125
1790.99	165
1791.4	111
1791.81	145
1792.22	93
1792.63	145
1793.05	139
1793.46	81
1793.87	163
1794.28	83
1794.69	163
1795.1	105
1795.52	143
1795.93	117
1796.34	135
1796.75	111
1797.16	123
1797.57	145
1797.98	79
1798.39	163
1798.81	83
1799.22	169
1799.63	107
1800.04	139
1800.45	139
1800.86	91
1801.27	113
1801.68	115
1802.09	131
1802.5	115
1802.91	111
1803.32	83
1803.73	141
1804.15	109
1804.56	135
1804.97	155
1805.38	119
1805.79	133
1806.2	135
1806.61	105
1807.02	161
1807.43	97
1807.84	143
1808.25	125
1808.66	111
1809.07	121
1809.48	117
1809.89	127
1810.3	89
1810.71	139
1811.12	77
1811.53	175
1811.94	61
1812.35	141
1812.76	127
1813.17	105
1813.58	163
1813.99	97
1814.4	145
1814.81	91
1815.22	137
1815.63	107
1816.04	131
1816.45	87
1816.86	149
1817.27	103
1817.68	121
1818.09	157
1818.5	91
1818.91	145
1819.32	91
1819.73	117
1820.14	121
1820.55	111
1820.96	83
1821.37	147
1821.78	127
1822.19	119
1822.6	131
1823.01	125.667
1823.42	125.222
1823.82	127.296
1824.23	126.062
1824.64	126.193
1825.05	178.638
1825.46	176.979
1825.87	149.162
1826.28	119
1826.69	145
1827.1	85
1827.51	123
1827.91	129
1828.32	115
1828.73	107
1829.14	125
1829.55	113
1829.96	129
1830.37	139
1830.78	101
1831.18	163
1831.59	57
1832	141
1832.41	115
1832.82	125
1833.23	119
1833.64	129
1834.05	125
1834.45	107
1834.86	149
1835.27	83
1835.68	161
1836.09	41
1836.49	147
1836.9	105
1837.31	109
1837.72	139
1838.13	77
1838.53	143
1838.94	81
1839.35	143
1839.76	115
1840.17	139
1840.58	95
1840.98	143
1841.39	125
1841.8	103
1842.21	157
1842.61	99
1843.02	149
1843.43	107
1843.84	117
1844.25	149
1844.65	83
1845.06	93
1845.47	143
1845.88	127
1846.28	148.797
1846.69	107.121
1847.1	120.783
1847.51	108.185
1847.91	124.879
1848.32	99.2205
1848.73	119.807
1849.14	91.9544
1849.54	97.2132
1849.95	125.866
1850.36	108.989
1850.77	154.77
1851.17	80.6618
1851.58	153.942
1851.99	107.748
1852.39	121.261
1852.8	124.341
1853.21	118.187
1853.62	113.896
1854.02	118.129
1854.43	148.128
1854.84	110.01
1855.24	156.576
1855.65	70.3943
1856.06	154.467
1856.46	123.121
1856.87	110.689
1857.28	139.915
1857.68	101.936
1858.09	138.973
1858.5	117.625
1858.9	141.652
1859.31	97.258
1859.72	132.146
1860.12	76.0907
1860.53	123.023
1860.94	130.929
1861.34	112.717
1861.75	145.234
1862.15	93.8975
1862.56	128.422
1862.97	121.932
1863.37	147.799
1863.78	138.169
1864.19	121.902
1864.59	104.763
1865	137.626
1865.4	137.994
1865.81	116.918
1866.22	147.115
1866.62	104.594
1867.03	142.531
1867.43	119.111
1867.84	127.399
1868.25	139.724
1868.65	101.872
1869.06	119.26
1869.46	140.316
1869.87	123.127
1870.28	113.312
1870.68	125.36
1871.09	120.022
1871.49	131.511
1871.9	124.357
1872.3	117.025
1872.71	132.47
1873.12	108.483
1873.52	119.267
1873.93	128.858
1874.33	118.43
1874.74	120.394
1875.14	90.2448
1875.55	118.966
1875.95	121.515
1876.36	129.127
1876.76	115.873
1877.17	139.159
1877.57	128.964
1877.98	112.871
1878.38	128.817
1878.79	117.685
1879.19	137.749
1879.6	115.519
1880	128.788
1880.41	129.788
1880.81	119.923
1881.22	119.301
1881.63	114.73
1882.03	117.087
1882.43	117.793
1882.84	117.116
1883.24	134.812
1883.65	113.465
1884.05	135.099
1884.46	109.133
1884.86	138.522
1885.27	124.046
1885.67	103.262
1886.08	126.88
1886.48	93.6195
1886.89	146.536
1887.29	106.762
1887.69	137.357
1888.1	97.0079
1888.5	132.856
1888.85	99
1889.26	147
1889.67	129
1890.08	85
1890.49	153
1890.9	79
1891.3	159
1891.71	99
1892.12	133
1892.53	135
1892.94	123
1893.35	103
1893.76	135
1894.17	123
1894.58	99
1894.99	167
1895.4	89
1895.81	141
1896.22	105
1896.62	125
1897.03	143
1897.44	105
1897.85	123
1898.26	137
1898.67	123
1899.08	125
1899.49	105
1899.9	125
1900.3	141
1900.71	117
1901.12	117
1901.53	139
1901.94	109
1902.35	123
1902.75	161
1903.16	111
1903.57	161
1903.98	79
1904.39	127
1904.8	125
1905.21	107
1905.61	121
1906.02	125
1906.43	131
1906.84	107
1907.25	159
1907.66	113
1908.06	169
1908.47	75
1908.88	147
1909.29	111
1909.7	93
1910.1	151
1910.51	85
1910.92	153
1911.33	97
1911.73	153
1912.14	115
1912.55	159
1912.96	81
1913.37	147
1913.77	137
1914.18	101
1914.59	163
1915	75
1915.4	155
1915.81	99
1916.22	117
1916.63	135
1917.03	115
1917.44	105
1917.85	153
1918.26	133
1918.66	111
1919.07	147
1919.48	107
1919.89	137
1920.29	121
1920.7	119
1921.11	149
1921.51	93
1921.92	113
1922.33	125
1922.73	105
1923.14	139
1923.55	95
1923.96	137
1924.36	121
1924.77	119
1925.18	105
1925.58	131
1925.99	95
1926.4	115
1926.8	147
1927.21	95
1927.62	169
1928.02	95
1928.43	129
1928.84	151
1929.24	123
1929.65	145
1930.06	97
1930.46	133
1930.87	103
1931.28	163
1931.68	91
1932.09	161
1932.49	73
1932.9	127
1933.31	121
1933.71	107
1934.12	143
1934.53	87
1934.93	137
1935.34	95
1935.74	133
1936.15	123
1936.56	151
1936.96	87
1937.37	159
1937.78	117
1938.18	99
1938.59	153
1938.99	93
1939.4	159
1939.8	99
1940.21	137
1940.62	143
1941.02	101
1941.43	111
1941.83	155
1942.24	131
1942.64	117
1943.05	145
1943.45	97
1943.86	133
1944.27	107
1944.67	115
1945.08	149
1945.48	93
1945.89	107
1946.29	113
1946.7	109
1947.1	145
1947.51	89
1947.91	127
1948.32	127
1948.72	121
1949.13	107
1949.53	139
1949.94	113
1950.34	127
1950.75	151
1951.15	81
1951.56	173
1951.96	79
1952.37	155
1952.77	107
1953.18	139
1953.58	153
1953.99	103
1954.39	117
1954.8	99
1955.2	149
1955.61	85
1956.01	163
1956.42	49
1956.82	135
1957.23	121
1957.63	119
1958.03	143
1958.44	95
1958.84	127
1959.25	111
1959.65	151
1960.06	127
1960.46	131
1960.86	105
1961.27	143
1961.67	113
1962.08	137
1962.48	137
1962.89	99
1963.29	141
1963.69	145
1964.1	121
1964.5	135
1964.91	133
1965.31	109
1965.71	153
1966.12	117
1966.52	109
1966.93	107
1967.33	107
1967.73	131
1968.14	127
1968.54	109
1968.94	145
1969.35	95
1969.75	97
1970.15	139
1970.56	111
1970.96	155
1971.37	79
1971.77	125
1972.17	123
1972.58	149
1972.98	115
1973.38	143
1973.79	95
1974.19	125
1974.59	161
1974.99	105
1975.4	163
1975.8	59
1976.21	163
1976.61	113
1977.01	149
1977.41	115
1977.82	133
1978.22	121
1978.62	105
1979.03	147
1979.43	103
1979.83	161
1980.24	53
1980.64	151
1981.04	127
1981.44	135
1981.85	147
1982.25	93
1982.65	135
1983.05	131
1983.46	137
1983.86	133
1984.26	141
1984.66	79
1985.07	137
1985.47	117
1985.87	113
1986.27	139
1986.68	101
1987.08	141
1987.48	135
1987.88	129
1988.29	131
1988.69	85
1989.09	109
1989.49	139
1989.89	123
1990.3	133
1990.7	111
1991.1	123
1991.5	121
1991.9	139
1992.31	111
1992.71	147
1993.11	113
1993.51	111
1993.91	165
1994.32	119
1994.72	171
1995.12	75
1995.52	141
1995.92	131
1996.32	145
1996.73	111
1997.13	155
1997.53	115
1997.93	147
1998.33	135
1998.73	119
1999.14	169
1999.54	69
1999.94	149
2000.34	119
2000.74	127
2001.14	137
2001.54	115
2001.94	101
2002.35	107
2002.75	127
2003.15	89
2003.55	147
2003.95	59
2004.35	171
2004.75	115
2005.15	129
2005.55	137
2005.96	87
2006.36	133
2006.76	121
2007.16	139
2007.56	125
2007.96	147
2008.36	97
2008.76	149
2009.16	141
2009.56	115
2009.96	157
2010.36	93
2010.76	135
2011.16	135
2011.57	121
2011.97	149
2012.37	113
2012.77	115
2013.17	121
2013.57	137
2013.97	145
2014.37	99
2014.77	131
2015.17	123
2015.57	125
2015.97	105
2016.37	149
2016.77	85
2017.17	125
2017.57	141
2017.97	91
2018.37	167
2018.77	57
2019.17	143
2019.57	105
2019.97	149
2020.37	115
2020.77	127
2021.17	91
2021.57	121
2021.97	153
2022.37	117
2022.77	173
2023.17	65
2023.57	147
2023.97	115
2024.37	125
2024.77	117
2025.17	107
2025.57	115
2025.97	115
2026.37	139
2026.77	111
2027.16	157
2027.56	65
2027.96	137
2028.36	125
2028.76	125
2029.16	111
2029.56	99
2029.96	121
2030.36	137
2030.76	127
2031.16	129
2031.56	119
2031.96	97
2032.35	157
2032.75	133
2033.15	129
2033.55	119
2033.95	111
2034.35	127
2034.75	149
2035.15	93
2035.54	159
2035.94	73
2036.34	119
2036.74	141
2037.14	107
2037.54	129
2037.94	97
2038.34	123
2038.74	107
2039.13	139
2039.53	95
2039.93	163
2040.33	105
2040.73	135
2041.12	127
2041.52	125
2041.92	161
2042.32	53
2042.72	159
2043.12	107
2043.51	171
2043.91	107
2044.31	145
2044.71	115
2045.11	141
2045.51	137
2045.9	111
2046.3	163
2046.7	69
2047.1	151
2047.49	125
2047.89	147
2048.29	125
2048.69	97
2049.09	113
2049.48	141
2049.88	121
2050.28	127
2050.68	115
2051.07	89
2051.47	129
2051.87	139
2052.27	115
2052.67	123
2053.06	107
2053.46	119
2053.86	161
2054.26	119
2054.65	149
2055.05	105
2055.45	125
2055.85	123
2056.24	139
2056.64	131
2057.04	113
2057.43	123
2057.83	129
2058.23	153
2058.62	93
2059.02	149
2059.42	79
2059.82	127
2060.21	135
2060.61	123
2061.01	159
2061.4	85
2061.8	137
2062.2	129
2062.59	139
2062.99	73
2063.39	155
2063.79	75
2064.18	163
2064.58	119
2064.97	141
2065.37	159
2065.77	89
2066.16	133
2066.56	137
2066.96	155
2067.35	109
2067.75	141
2068.15	109
2068.54	143
2068.94	123
2069.34	115
2069.73	159
2070.13	69
2070.52	139
2070.92	95
2071.32	121
2071.71	129
2072.11	99
2072.51	103
2072.9	135
2073.3	125
2073.69	123
2074.09	139
2074.49	93
2074.88	125
2075.28	139
2075.67	113
2076.07	125
2076.47	95
2076.86	141
2077.26	139
2077.65	93
2078.05	155
2078.44	73
2078.84	145
2079.23	133
2079.63	129
2080.03	103
2080.42	131
2080.82	113
2081.21	127
2081.61	137
2082	77
2082.4	165
2082.79	95
2083.19	157
2083.58	115
2083.98	117
2084.37	125
2084.77	83
2085.16	125
2085.56	127
2085.95	163
2086.35	75
2086.74	163
2087.14	95
2087.53	147
2087.93	151
2088.32	127
2088.72	147
2089.11	69
2089.51	149
2089.9	123
2090.3	125
2090.69	111
2091.09	137
2091.48	97
2091.88	153
2092.27	111
2092.67	123
2093.06	139
2093.46	91
2093.85	153
2094.25	113
2094.64	131
2095.03	127
2095.43	109
2095.82	125
2096.22	151
2096.61	115
2097.01	141
2097.4	101
2097.79	125
2098.19	139
2098.58	123
2098.98	107
2099.37	135
2099.76	101
2100.16	137
2100.55	131
2100.95	87
2101.34	165
2101.73	83
2102.13	139
2102.52	109
2102.92	151
2103.31	115
2103.7	121
2104.1	115
2104.49	133
2104.88	153
2105.28	81
2105.67	159
2106.07	71
2106.46	169
2106.85	113
2107.25	135
2107.64	137
2108.03	91
2108.43	119
2108.82	111
2109.21	135
2109.61	77
2110	137
2110.39	103
2110.79	161
2111.18	111
2111.57	125
2111.97	143
2112.36	95
2112.75	155
2113.15	119
2113.54	135
2113.93	117
2114.32	119
2114.72	117
2115.11	143
2115.5	107
2115.9	131
2116.29	133
2116.68	85
2117.08	135
2117.47	139
2117.86	95
2118.25	141
2118.65	79
2119.04	137
2119.43	137
2119.82	99
2120.22	151
2120.61	95
2121	123
2121.39	121
2121.79	131
2122.18	99
2122.57	135
2122.96	111
2123.36	149
2123.75	133
2124.14	73
2124.53	157
2124.93	85
2125.32	155
2125.71	93
2126.1	131
2126.49	127
2126.89	145
2127.28	91
2127.67	137
2128.06	123
2128.45	71
2128.85	159
2129.24	89
2129.63	147
2130.02	79
2130.41	127
2130.81	135
2131.2	103
2131.59	115
2131.98	141
2132.37	139
2132.76	111
2133.16	141
2133.55	87
2133.94	139
2134.33	105
2134.72	109
2135.11	153
2135.5	101
2135.9	123
2136.29	123
2136.68	117
2137.07	133
2137.46	93
2137.85	129
2138.24	135
2138.63	101
2139.03	111
2139.42	129
2139.81	109
2140.2	101
2140.59	125
2140.98	99
2141.37	175
2141.76	73
2142.15	143
2142.55	109
2142.94	93
2143.33	135
2143.72	87
2144.11	121
2144.5	97
2144.89	145
2145.28	89
2145.67	157
2146.06	87
2146.45	143
2146.84	125
2147.23	105
2147.62	191
2148.02	87
2148.4	147
2148.8	89
2149.19	149
2149.58	103
2149.97	135
2150.36	87
2150.75	143
2151.14	127
2151.53	117
2151.92	135
2152.31	83
2152.7	147
2153.09	87
2153.48	141
2153.87	141
2154.26	121
2154.65	117
2155.04	129
2155.43	119
2155.82	125
2156.21	141
2156.6	111
2156.99	159
2157.38	115
2157.77	127
2158.16	141
2158.55	89
2158.94	107
2159.33	145
2159.72	115
2160.11	151
2160.5	77
2160.89	135
2161.28	127
2161.66	121
2162.05	109
2162.44	131
2162.83	105
2163.22	111
2163.61	161
2164	93
2164.39	189
2164.78	67
2165.17	149
2165.56	107
2165.95	133
2166.34	127
2166.73	97
2167.11	147
2167.5	97
2167.89	155
2168.28	91
2168.67	165
2169.06	77
2169.45	131
2169.84	123
2170.23	91
2170.62	157
2171	81
2171.39	123
2171.78	101
2172.17	151
2172.56	121
2172.95	121
2173.34	103
2173.73	127
2174.11	139
2174.5	125
2174.89	147
2175.28	79
2175.67	131
2176.06	107
2176.45	113
2176.83	133
2177.22	99
2177.61	99
2178	155
2178.39	123
2178.78	135
2179.16	97
2179.55	103
2179.94	133
2180.33	107
2180.72	111
2181.1	131
2181.49	109
2181.88	111
2182.27	141
2182.66	89
2183.04	165
2183.43	77
2183.82	121
2184.21	105
2184.6	117
2184.98	115
2185.37	131
2185.76	111
2186.15	107
2186.53	145
2186.92	101
2187.31	175
2187.7	73
2188.08	153
2188.47	97
2188.86	121
2189.25	129
2189.63	99
2190.02	121
2190.41	95
2190.8	135
2191.18	99
2191.57	173
2191.96	81
2192.34	149
2192.73	113
2193.12	105
2193.51	145
2193.89	81
2194.28	127
2194.67	103
2195.06	129
2195.44	131
2195.83	131
2196.22	97
2196.6	143
2196.99	123
2197.38	121
2197.76	121
2198.15	111
2198.54	123
2198.92	107
2199.31	105
2199.7	137
2200.08	89
2200.47	105
2200.86	121
2201.24	111
2201.63	165
2202.02	113
2202.4	139
2202.79	103
2203.18	129
2203.56	93
2203.95	161
2204.34	93
2204.72	105
2205.11	139
2205.49	105
2205.88	167
2206.27	51
2206.65	135
2207.04	99
2207.43	147
2207.81	99
2208.2	119
2208.58	103
2208.97	117
2209.36	137
2209.74	95
2210.13	159
2210.51	53
2210.9	153
2211.29	121
2211.67	131
2212.06	129
2212.44	125
2212.83	117
2213.21	123
2213.6	123
2213.98	111
2214.37	145
2214.76	73
2215.14	159
2215.53	101
2215.91	114.958
2216.3	146.896
2216.69	113.973
2217.07	106.51
2217.46	124.094
2217.84	123.209
2218.23	126.599
2218.61	102.804
2219	101.208
2219.38	147.514
2219.77	117.324
2220.15	102.336
2220.54	109.879
2220.92	105.894
2221.31	130.057
2221.69	144.928
2222.08	83.2405
2222.46	152.944
2222.85	74.6441
2223.23	142.339
2223.62	127.157
2224	118.033
2224.39	126.944
2224.77	85.2726
2225.16	123.068
2225.54	117.895
2225.93	145.045
2226.31	82.2693
2226.7	151.669
2227.08	90.066
2227.47	136.312
2227.85	121.13
2228.23	94.7281
2228.62	141.735
2229	73.1769
2229.39	137.69
2229.77	115.905
2230.16	125.648
2230.54	104.962
2230.92	121.41
2231.31	110.601
2231.69	140.025
2232.08	136.217
2232.46	100.541
2232.85	139.562
2233.23	91.196
2233.62	132.878
2234	137.456
2234.38	108.176
2234.77	127.113
2235.15	110.05
2235.54	124.484
2235.92	128.197
2236.3	125.007
2236.69	124.82
2237.07	118.591
2237.46	104.109
2237.84	123.641
2238.22	122.778
2238.61	109.602
2238.99	119.774
2239.37	180.916
2239.76	136.764
2240.14	142.049
2240.53	138.957
2240.91	130.74
2241.29	104.316
2241.68	120.127
2242.06	122.713
2242.44	127.586
2242.83	121.1
2243.21	103.608
2243.59	122.381
2243.98	97.4926
2244.36	137.331
2244.74	99.1196
2245.13	131.729
2245.51	125.617
2245.89	107.746
2246.28	125.851
2246.66	124.243
2247.04	132.801
2247.43	114.57
2247.81	129.729
2248.19	110.188
2248.58	126.284
2248.96	100.016
2249.34	113.992
2249.73	128.968
2250.11	117.374
2250.49	111.644
2250.88	127.606
2251.26	87.3079
2251.64	131.698
2252.02	88.3703
2252.41	130.101
2252.79	142.722
2252.8	143
2253.18	101
2253.57	129
2253.96	123
2254.35	123
2254.74	103
2255.12	139
2255.51	97
2255.9	161
2256.29	97
2256.67	135
2257.06	123
2257.45	91
2257.84	145
2258.22	97
2258.61	113
2259	105
2259.39	145
2259.77	103
2260.16	151
2260.55	85
2260.94	153
2261.32	105
2261.71	87
2262.1	151
2262.48	69
2262.87	151
2263.26	111
2263.65	129
2264.03	89
2264.42	133
2264.81	91
2265.19	137
2265.58	129
2265.97	89
2266.35	157
2266.74	79
2267.13	153
2267.51	91
2267.9	129
2268.29	165
2268.67	113
2269.06	103
2269.45	127
2269.83	107
2270.22	113
2270.61	133
2270.99	97
2271.38	145
2271.77	115
2272.15	119
2272.54	139
2272.93	93
2273.31	109
2273.7	113
2274.08	111
2274.47	145
2274.86	81
2275.24	153
2275.63	113
2276.02	111
2276.4	111
2276.79	127
2277.17	121
2277.56	133
2277.95	167
2278.33	97
2278.72	189
2279.1	65
2279.49	161
2279.88	123
2280.26	145
2280.65	149
2281.03	145
2281.42	127
2281.8	97
2282.19	133
2282.58	99
2282.96	159
2283.35	55
2283.73	145
2284.12	103
2284.5	121
2284.89	147
2285.28	99
2285.66	125
2286.05	103
2286.43	129
2286.82	125
2287.2	115
2287.59	71
2287.97	137
2288.36	121
2288.74	119
2289.13	135
2289.51	87
2289.9	125
2290.28	127
2290.67	119
2291.05	143
2291.44	109
2291.82	93
2292.21	137
2292.59	127
2292.98	127
2293.36	117
2293.75	101
2294.13	129
2294.52	131
2294.9	101
2295.29	163
2295.67	89
2296.06	111
2296.44	131
2296.83	107
2297.21	131
2297.6	61
2297.98	123
2298.36	123
2298.75	153
2299.13	103
2299.52	159
2299.9	95
2300.29	113
2300.67	137
2301.06	117
2301.44	169
2301.82	41
2302.21	157
2302.59	115
2302.98	147
2303.36	117
2303.75	115
2304.13	97
2304.51	129
2304.9	119
2305.28	95
2305.67	155
2306.05	53
2306.44	163
2306.82	105
2307.2	117
2307.59	133
2307.97	99
2308.35	125
2308.74	127
2309.12	131
2309.51	133
2309.89	145
2310.27	75
2310.66	139
2311.04	121
2311.42	129
2311.81	145
2312.19	117
2312.57	131
2312.96	133
2313.34	103
2313.73	143
2314.11	105
2314.49	109
2314.88	149
2315.26	137
2315.64	133
2316.03	101
2316.41	117
2316.79	129
2317.18	151
2317.56	107
2317.94	165
2318.32	85
2318.71	125
2319.09	135
2319.47	109
2319.86	145
2320.24	81
2320.62	129
2321.01	105
2321.39	145
2321.77	89
2322.15	167
2322.54	91
2322.92	129
2323.3	145
2323.69	119
2324.07	155
2324.45	79
2324.83	135
2325.22	117
2325.6	145
2325.98	95
2326.36	167
2326.75	83
2327.13	149
2327.51	139
2327.89	101
2328.28	165
2328.66	49
2329.04	169
2329.42	117
2329.81	145
2330.19	123
2330.57	119
2330.95	115
2331.33	137
2331.72	145
2332.1	115
2332.48	167
2332.86	75
2333.24	149
2333.63	125
2334.01	113
2334.39	137
2334.77	117
2335.15	131
2335.54	131
2335.92	105
2336.3	131
2336.68	109
2337.06	95
2337.44	139
2337.83	125
2338.21	137
2338.59	121
2338.97	107
2339.35	111
2339.73	147
2340.12	105
2340.5	143
2340.88	75
2341.26	107
2341.64	135
2342.02	127
2342.41	133
2342.79	101
2343.17	97
2343.55	137
2343.93	159
2344.31	87
2344.69	159
2345.07	77
2345.45	137
2345.84	125
2346.22	133
2346.6	139
2346.98	85
2347.36	139
2347.74	115
2348.12	155
2348.5	69
2348.88	153
2349.26	69
2349.65	147
2350.03	137
2350.41	113
2350.79	167
2351.17	71
2351.55	147
2351.93	117
2352.31	139
2352.69	95
2353.07	127
2353.45	97
2353.83	135
2354.21	135
2354.59	135
2354.98	133
2355.35	85
2355.74	155
2356.12	131
2356.5	151
2356.88	129
2357.26	99
2357.64	137
2358.02	141
2358.4	123
2358.78	139
2359.16	117
2359.54	145
2359.92	123
2360.3	125
2360.68	93
2361.06	143
2361.44	107
2361.82	135
2362.2	151
2362.58	93
2362.96	149
2363.34	101
2363.72	139
2364.1	115
2364.48	127
2364.86	99
2365.24	129
2365.62	109
2366	127
2366.38	153
2366.75	89
2367.14	169
2367.51	73
2367.89	147
2368.27	111
2368.65	145
2369.03	137
2369.41	113
2369.79	127
2370.17	121
2370.55	153
2370.93	75
2371.31	153
2371.69	77
2372.07	171
2372.45	115
2372.83	143
2373.2	149
2373.58	109
2373.96	121
2374.34	139
2374.72	131
2375.1	101
2375.48	161
2375.86	111
2376.24	145
2376.61	103
2376.99	127
2377.37	145
2377.75	111
2378.13	153
2378.51	131
2378.89	115
2379.27	123
2379.65	117
2380.02	105
2380.4	131
2380.78	109
2381.16	129
2381.54	129
2381.92	115
2382.3	139
2382.67	149
2383.05	101
2383.43	143
2383.81	73
2384.19	141
2384.57	133
2384.94	101
2385.32	147
2385.7	119
2386.08	149
2386.46	101
2386.83	153
2387.21	101
2387.59	143
2387.97	99
2388.35	153
2388.73	137
2389.1	79
2389.48	149
2389.86	87
2390.24	161
2390.62	93
2390.99	137
2391.37	109
2391.75	151
2392.13	105
2392.5	135
2392.88	141
2393.26	105
2393.64	155
2394.01	81
2394.39	131
2394.77	89
2395.15	137
2395.52	123
2395.9	123
2396.28	105
2396.66	151
2397.04	141
2397.41	109
2397.79	129
2398.17	99
2398.54	157
2398.92	109
2399.3	133
2399.68	147
2400.05	109
2400.43	133
2400.81	149
2401.18	123
2401.56	135
2401.94	145
2402.32	137
2402.69	141
2403.07	103
2403.45	129
2403.82	137
2404.2	111
2404.58	127
2404.95	135
2405.33	127
2405.71	163
2406.09	83
2406.46	143
2406.84	121
2407.22	115
2407.59	133
2407.97	135
2408.34	109
2408.72	115
2409.1	157
2409.47	121
2409.85	169
2410.23	89
2410.6	151
2410.98	127
2411.36	115
2411.73	163
2412.11	99
2412.49	139
2412.86	113
2413.24	169
2413.61	125
2413.99	141
2414.37	117
2414.74	157
2415.12	119
2415.5	87
2415.87	161
2416.25	83
2416.62	151
2417	93
2417.37	145
2417.75	131
2418.13	129
2418.5	101
2418.88	147
2419.25	133
2419.63	121
2420.01	165
2420.38	119
2420.76	141
2421.13	91
2421.51	127
2421.88	157
2422.26	129
2422.64	107
2423.01	149
2423.39	127
2423.76	143
2424.14	115
2424.51	117
2424.89	151
2425.26	131
2425.64	135
2426.01	151
2426.39	97
2426.76	129
2427.14	129
2427.52	115
2427.89	165
2428.26	89
2428.64	127
2429.02	133
2429.39	121
2429.77	131
2430.14	147
2430.52	125
2430.89	117
2431.26	165
2431.64	113
2432.02	177
2432.39	93
2432.77	175
2433.14	109
2433.51	135
2433.89	131
2434.26	113
2434.64	145
2435.01	107
2435.39	161
2435.76	117
2436.14	155
2436.51	83
2436.89	161
2437.26	127
2437.63	141
2438.01	177
2438.38	105
2438.76	153
2439.13	125
2439.51	129
2439.88	127
2440.26	127
2440.63	109
2441	145
2441.38	141
2441.75	141
2442.13	131
2442.5	105
2442.87	161
2443.25	135
2443.62	137
2444	163
2444.37	129
2444.74	133
2445.12	145
2445.49	141
2445.87	173
2446.24	141
2446.61	149
2446.99	161
2447.36	143
2447.73	123
2448.11	187
2448.48	135
2448.86	161
2449.23	169
2449.6	141
2449.98	181
2450.35	103
2450.72	187
2451.1	159
2451.47	151
2451.84	141
2452.22	165
2452.59	127
2452.97	139
2453.34	167
2453.71	125
2454.08	193
2454.46	105
2454.83	181
2455.2	153
2455.58	177
2455.95	157
2456.32	157
2456.7	165
2457.07	159
2457.44	179
2457.82	143
2458.19	221
2458.56	89
2458.93	185
2459.31	159
2459.68	167
2460.05	185
2460.43	159
2460.8	167
2461.17	153
2461.54	181
2461.92	159
2462.29	155
2462.66	131
2463.03	181
2463.41	177
2463.78	167
2464.15	183
2464.52	141
2464.9	169
2465.27	187
2465.64	161
2466.01	193
2466.39	135
2466.76	157
2467.13	169
2467.5	157
2467.88	169
2468.25	127
2468.62	147
2468.99	145
2469.37	175
2469.74	139
2470.11	199
2470.48	117
2470.85	143
2471.22	185
2471.6	153
2471.97	165
2472.34	93
2472.71	157
2473.08	135
2473.46	175
2473.83	137
2474.2	165
2474.57	123
2474.94	159
2475.32	171
2475.69	121
2476.06	197
2476.43	105
2476.8	209
2477.17	125
2477.55	175
2477.92	143
2478.29	145
2478.66	119
2479.03	151
2479.4	153
2479.77	135
2480.15	165
2480.52	91
2480.89	183
2481.26	133
2481.63	149
2482	133
2482.37	123
2482.74	135
2483.12	143
2483.49	151
2483.86	135
2484.23	157
2484.6	111
2484.97	163
2485.34	129
2485.71	141
2486.08	143
2486.46	139
2486.83	169
2487.2	153
2487.57	155
2487.94	147
2488.31	135
2488.68	121
2489.05	169
2489.42	143
2489.79	129
2490.16	135
2490.53	113
2490.9	147
2491.27	175
2491.64	115
2492.01	189
2492.38	73
2492.76	143
2493.13	145
2493.5	139
2493.87	157
2494.24	79
2494.61	177
2494.98	127
2495.35	161
2495.72	101
2496.09	177
2496.46	97
2496.83	157
2497.2	143
2497.57	121
2497.94	165
2498.31	89
2498.68	159
2499.05	133
2499.42	161
2499.79	99
2500.16	143
2500.53	117
2500.9	141
2501.27	165
2501.64	141
2502.01	175
2502.38	79
2502.75	149
2503.12	117
2503.49	143
2503.86	115
2504.23	129
2504.6	121
2504.97	143
2505.34	143
2505.7	119
2506.07	151
2506.44	91
2506.81	167
2507.18	111
2507.55	143
2507.92	127
2508.29	133
2508.66	135
2509.03	153
2509.4	133
2509.77	161
2510.14	127
2510.5	137
2510.88	159
2511.24	123
2511.61	131
2511.98	157
2512.35	115
2512.72	141
2513.09	131
2513.46	91
2513.83	161
2514.2	73
2514.56	143
2514.93	129
2515.3	145
2515.67	125
2516.04	105
2516.41	121
2516.78	131
2517.15	151
2517.51	97
2517.88	183
2518.25	87
2518.62	179
2518.99	127
2519.36	149
2519.73	157
2520.09	73
2520.46	159
2520.83	127
2521.2	159
2521.57	87
2521.94	167
2522.3	91
2522.67	155
2523.04	117
2523.41	127
2523.78	149
2524.15	77
2524.51	155
2524.88	121
2525.25	143
2525.62	93
2525.98	139
2526.35	111
2526.72	165
2527.09	119
2527.46	133
2527.83	141
2528.19	99
2528.56	155
2528.93	127
2529.3	141
2529.66	129
2530.03	115
2530.4	129
2530.77	147
2531.13	107
2531.5	153
2531.87	115
2532.24	141
2532.61	145
2532.97	125
2533.34	109
2533.71	131
2534.07	95
2534.44	155
2534.81	147
2535.18	99
2535.54	161
2535.91	73
2536.28	135
2536.65	129
2537.01	135
2537.38	123
2537.75	153
2538.11	135
2538.48	145
2538.85	145
2539.22	91
2539.58	175
2539.95	73
2540.32	151
2540.68	101
2541.05	141
2541.42	131
2541.78	99
2542.15	109
2542.52	145
2542.89	165
2543.25	95
2543.62	161
2543.99	91
2544.35	149
2544.72	105
2545.08	109
2545.45	139
2545.82	67
2546.19	147
2546.55	133
2546.92	117
2547.28	99
2547.65	131
2548.02	121
2548.38	143
2548.75	123
2549.12	115
2549.48	161
2549.85	101
2550.21	147
2550.58	141
2550.95	109
2551.31	141
2551.68	107
2552.05	123
2552.41	135
2552.78	113
2553.14	145
2553.51	115
2553.88	117
2554.24	131
2554.61	123
2554.97	109
2555.34	139
2555.71	97
2556.07	123
2556.44	137
2556.8	99
2557.17	151
2557.53	83
2557.9	131
2558.27	117
2558.63	135
2559	119
2559.36	129
2559.73	97
2560.09	137
2560.46	147
2560.82	103
2561.19	177
2561.55	93
2561.92	145
2562.29	123
2562.65	141
2563.02	119
2563.38	137
2563.75	125
2564.11	125
2564.48	159
2564.84	83
2565.21	179
2565.57	73.4198
2565.94	141.911
2566.3	102.687
2566.67	124.646
2567.03	145.721
2567.4	118.006
2567.76	124.388
2568.13	116.584
2568.49	152.098
2568.86	98.7585
2569.22	134.661
2569.59	98.9449
2569.95	130.035
2570.32	121.001
2570.68	127.728
2571.05	160.169
2571.41	102.355
2571.78	135.04
2572.14	133.096
2572.51	132.072
2572.87	134.163
2573.23	111.525
2573.6	140.065
2573.96	132.803
2574.33	123.839
2574.69	125.158
2575.06	136.112
2575.42	119.807
2575.79	121.231
2576.15	141.639
2576.51	98.9835
2576.88	151.14
2577.24	112.871
2577.61	133.372
2577.97	124.727
2578.34	112.794
2578.7	136.62
2579.06	107.901
2579.43	127.096
2579.79	107.028
2580.16	140.209
2580.52	116.342
2580.88	147.197
2581.25	112.029
2581.61	131.419
2581.98	118.027
2582.34	101.903
2582.7	157.954
2583.07	115.622
2583.43	133.861
2583.8	104.894
2584.16	143.601
2584.52	129.792
2584.89	141.664
2585.25	129.57
2585.61	153.059
2585.98	126.601
2586.34	125.663
2586.7	155.025
2587.07	105.431
2587.43	142.626
2587.8	96.8527
2588.16	137.818
2588.52	126.994
2588.88	146.626
2589.25	117.149
2589.61	138.264
2589.97	128.848
2590.34	126.986
2590.7	147.732
2591.06	109.848
2591.43	156.843
2591.79	90.2897
2592.15	157.061
2592.52	135.094
2592.88	128.711
2593.24	134.696
2593.61	124.285
2593.97	119.252
2594.33	132.93
2594.7	131.786
2595.06	120.529
2595.42	157.903
2595.78	94.3208
2596.15	152.958
2596.51	127.12
2596.87	114.053
2597.24	130.541
2597.6	114.402
2597.96	124.288
2598.32	153.227
2598.69	136.034
2599.05	144.683
2599.41	142.415
2599.78	115.915
2600.14	150.39
2600.5	149.827
2600.86	137.751
2600.95	135
2601.31	139
2601.68	119
2602.05	135
2602.42	153
2602.78	113
2603.15	145
2603.52	107
2603.89	135
2604.25	169
2604.62	135
2604.99	123
2605.35	117
2605.72	119
2606.09	157
2606.46	167
2606.82	127
2607.19	195
2607.56	105
2607.92	143
2608.29	145
2608.66	143
2609.03	163
2609.39	97
2609.76	137
2610.13	145
2610.49	179
2610.86	103
2611.23	183
2611.59	83
2611.96	171
2612.33	151
2612.69	137
2613.06	177
2613.43	87
2613.79	153
2614.16	139
2614.53	143
2614.89	97
2615.26	151
2615.62	129
2615.99	171
2616.36	133
2616.72	145
2617.09	187
2617.46	95
2617.82	161
2618.19	143
2618.56	141
2618.92	123
2619.29	145
2619.65	131
2620.02	155
2620.39	141
2620.75	161
2621.12	179
2621.48	135
2621.85	173
2622.22	143
2622.58	145
2622.95	143
2623.31	121
2623.68	149
2624.04	173
2624.41	121
2624.78	153
2625.14	145
2625.51	131
2625.87	191
2626.24	145
2626.6	151
2626.97	171
2627.34	133
2627.7	163
2628.07	165
2628.43	133
2628.8	201
2629.16	137
2629.53	181
2629.9	159
2630.26	183
2630.63	133
2630.99	169
2631.36	145
2631.72	185
2632.09	171
2632.45	143
2632.82	205
2633.18	119
2633.55	181
2633.91	135
2634.28	175
2634.64	173
2635.01	177
2635.37	177
2635.74	175
2636.1	195
2636.47	131
2636.83	209
2637.2	131
2637.56	215
2637.93	207
2638.29	177
2638.66	193
2639.02	165
2639.39	175
2639.75	187
2640.12	203
2640.48	141
2640.84	225
2641.21	171
2641.57	253
2641.94	171
2642.3	195
2642.67	211
2643.03	167
2643.4	225
2643.76	183
2644.13	211
2644.49	207
2644.85	199
2645.22	187
2645.58	223
2645.95	189
2646.31	227
2646.68	221
2647.04	191
2647.4	217
2647.77	227
2648.13	225
2648.5	231
2648.86	227
2649.22	227
2649.59	251
2649.95	223
2650.32	257
2650.68	251
2651.04	239
2651.41	239
2651.77	257
2652.14	261
2652.5	257
2652.86	213
2653.23	265
2653.59	273
2653.95	239
2654.32	269
2654.68	239
2655.05	323
2655.41	257
2655.77	293
2656.14	241
2656.5	303
2656.86	277
2657.23	295
2657.59	303
2657.95	251
2658.32	327
2658.68	265
2659.04	387
2659.41	297
2659.77	349
2660.13	309
2660.5	337
2660.86	317
2661.22	345
2661.59	345
2661.95	295
2662.31	409
2662.68	301
2663.04	397
2663.4	331
2663.76	361
2664.13	425
2664.49	395
2664.85	393
2665.22	393
2665.58	385
2665.94	385
2666.3	425
2666.67	381
2667.03	445
2667.39	423
2667.76	439
2668.12	437
2668.48	411
2668.84	449
2669.21	495
2669.57	443
2669.93	505
2670.29	465
2670.66	501
2671.02	547
2671.38	453
2671.74	493
2672.11	575
2672.47	523
2672.83	533
2673.19	565
2673.56	579
2673.92	579
2674.28	517
2674.64	601
2675	583
2675.37	599
2675.73	587
2676.09	611
2676.45	577
2676.81	641
2677.18	665
2677.54	647
2677.9	699
2678.26	617
2678.62	719
2678.99	627
2679.35	687
2679.71	745
2680.07	671
2680.43	763
2680.8	685
2681.16	775
2681.52	705
2681.88	783
2682.24	729
2682.6	803
2682.97	801
2683.33	737
2683.69	771
2684.05	771
2684.41	811
2684.77	779
2685.13	819
2685.5	777
2685.86	853
2686.22	747
2686.58	861
2686.94	823
2687.3	855
2687.66	863
2688.03	811
2688.39	865
2688.75	831
2689.11	891
2689.47	857
2689.83	795
2690.19	793
2690.55	825
2690.91	845
2691.28	809
2691.64	799
2692	801
2692.36	825
2692.72	797
2693.08	763
2693.44	809
2693.8	755
2694.16	745
2694.52	757
2694.88	691
2695.24	775
2695.61	687
2695.97	739
2696.33	683
2696.69	689
2697.05	681
2697.41	725
2697.77	635
2698.13	689
2698.49	681
2698.85	633
2699.21	703
2699.57	569
2699.93	645
2700.29	593
2700.65	611
2701.01	581
2701.37	601
2701.73	593
2702.09	583
2702.45	551
2702.81	543
2703.18	585
2703.53	473
2703.89	569
2704.25	495
2704.62	525
2704.98	517
2705.33	477
2705.69	485
2706.06	475
2706.42	477
2706.78	407
2707.13	495
2707.49	405
2707.85	511
2708.22	411
2708.57	455
2708.93	417
2709.29	373
2709.65	413
2710.01	367
2710.37	411
2710.73	347
2711.09	399
2711.45	309
2711.81	387
2712.17	331
2712.53	339
2712.89	363
2713.25	305
2713.61	339
2713.97	351
2714.33	345
2714.69	315
2715.05	309
2715.41	259
2715.76	327
2716.12	293
2716.48	299
2716.84	273
2717.2	285
2717.56	289
2717.92	297
2718.28	263
2718.64	291
2719	235
2719.35	283
2719.71	285
2720.07	251
2720.43	259
2720.79	251
2721.15	273
2721.51	261
2721.87	263
2722.23	197
2722.59	277
2722.94	199
2723.3	291
2723.66	257
2724.02	235
2724.38	253
2724.74	169
2725.1	241
2725.46	201
2725.81	227
2726.17	157
2726.53	227
2726.89	183
2727.25	229
2727.61	191
2727.96	185
2728.32	237
2728.68	141
2729.04	233
2729.4	209
2729.75	213
2730.11	167
2730.47	181
2730.83	201
2731.19	219
2731.55	205
2731.91	189
2732.26	217
2732.62	143
2732.98	215
2733.34	195
2733.69	193
2734.05	207
2734.41	177
2734.77	187
2735.13	189
2735.48	185
2735.84	221
2736.2	173
2736.56	153
2736.91	175
2737.27	225
2737.63	149
2737.99	163
2738.35	137
2738.7	187
2739.06	189
2739.42	123
2739.78	215
2740.13	133
2740.49	191
2740.85	161
2741.21	209
2741.56	153
2741.92	183
2742.28	153
2742.64	191
2742.99	189
2743.35	105
2743.71	191
2744.06	129
2744.42	179
2744.78	135
2745.14	185
2745.49	149
2745.85	185
2746.21	157
2746.57	169
2746.92	167
2747.28	107
2747.64	191
2747.99	99
2748.35	183
2748.71	147
2749.06	167
2749.42	161
2749.78	129
2750.13	145
2750.49	181
2750.85	149
2751.2	145
2751.56	173
2751.92	131
2752.27	171
2752.63	119
2752.99	161
2753.34	183
2753.7	119
2754.06	149
2754.41	167
2754.77	151
2755.13	145
2755.48	135
2755.84	145
2756.2	175
2756.55	127
2756.91	131
2757.26	163
2757.62	139
2757.98	135
2758.33	175
2758.69	127
2759.04	173
2759.4	125
2759.76	159
2760.11	141
2760.47	153
2760.83	167
2761.18	143
2761.54	159
2761.89	113
2762.25	169
2762.61	121
2762.96	203
2763.32	99
2763.67	167
2764.03	137
2764.38	143
2764.74	165
2765.1	105
2765.45	145
2765.81	125
2766.16	159
2766.52	115
2766.88	175
2767.23	97
2767.59	181
2767.94	125
2768.3	123
2768.65	185
2769.01	93
2769.36	151
2769.72	119
2770.07	151
2770.43	121
2770.78	167
2771.14	99
2771.49	169
2771.85	129
2772.21	135
2772.56	163
2772.92	123
2773.27	161
2773.63	117
2773.98	159
2774.34	145
2774.69	137
2775.05	103
2775.4	149
2775.76	137
2776.11	151
2776.47	135
2776.82	117
2777.18	147
2777.53	143
2777.89	129
2778.24	175
2778.59	113
2778.95	129
2779.3	139
2779.66	129
2780.01	167
2780.37	119
2780.72	137
2781.08	117
2781.43	141
2781.79	115
2782.14	167
2782.49	153
2782.85	129
2783.2	159
2783.56	131
2783.91	177
2784.27	67
2784.62	157
2784.98	125
2785.33	147
2785.68	117
2786.04	143
2786.39	123
2786.75	131
2787.1	151
2787.46	123
2787.81	179
2788.16	79
2788.52	177
2788.87	131
2789.22	139
2789.58	165
2789.93	117
2790.29	125
2790.64	137
2790.99	147
2791.35	115
2791.7	157
2792.06	67
2792.41	173
2792.76	139
2793.12	135
2793.47	165
2793.82	121
2794.18	143
2794.53	129
2794.88	157
2795.24	129
2795.59	171
2795.95	91
2796.3	163
2796.65	127
2797.01	127
2797.36	147
2797.71	99
2798.07	149
2798.42	129
2798.77	135
2799.13	157
2799.48	107
2799.83	101
2800.19	147
2800.54	143
2800.89	149
2801.24	135
2801.6	121
2801.95	139
2802.3	175
2802.66	113
2803.01	169
2803.36	99
2803.72	121
2804.07	133
2804.42	131
2804.77	151
2805.13	103
2805.48	147
2805.83	133
2806.19	173
2806.54	103
2806.89	163
2807.24	93
2807.6	143
2807.95	149
2808.3	131
2808.65	169
2809.01	89
2809.36	157
2809.71	121
2810.06	157
2810.42	93
2810.77	149
2811.12	95
2811.47	133
2811.83	153
2812.18	113
2812.53	161
2812.88	95
2813.24	165
2813.59	115
2813.94	147
2814.29	103
2814.64	127
2815	117
2815.35	165
2815.7	151
2816.05	149
2816.4	143
2816.76	79
2817.11	159
2817.46	129
2817.81	127
2818.16	113
2818.52	123
2818.87	121
2819.22	161
2819.57	115
2819.92	127
2820.28	139
2820.63	99
2820.98	153
2821.33	149
2821.68	123
2822.03	137
2822.39	111
2822.74	161
2823.09	135
2823.44	121
2823.79	153
2824.14	121
2824.49	141
2824.85	137
2825.2	143
2825.55	107
2825.9	141
2826.25	123
2826.6	131
2826.95	155
2827.31	83
2827.66	183
2828.01	81
2828.36	175
2828.71	129
2829.06	141
2829.41	135
2829.76	111
2830.11	129
2830.46	111
2830.82	155
2831.17	97
2831.52	175
2831.87	75
2832.22	153
2832.57	113
2832.92	143
2833.27	137
2833.62	113
2833.97	147
2834.32	137
2834.68	133
2835.03	101
2835.38	155
2835.73	101
2836.08	143
2836.43	109
2836.78	121
2837.13	151
2837.48	103
2837.83	135
2838.18	145
2838.53	117
2838.88	107
2839.23	119
2839.58	125
2839.93	143
2840.28	113
2840.63	131
2840.98	145
2841.33	111
2841.68	139
2842.03	161
2842.38	117
2842.73	151
2843.08	111
2843.43	121
2843.78	135
2844.13	109
2844.48	117
2844.83	139
2845.18	127
2845.53	154.64
2845.88	202.5
2846.23	187.7
2846.58	191
2846.93	65
2847.28	147
2847.63	131
2847.98	91
2848.33	139
2848.68	87
2849.03	123
2849.38	103
2849.73	151
2850.08	91
2850.43	155
2850.78	85
2851.13	135
2851.48	125
2851.83	107
2852.18	161
2852.53	63
2852.88	157
2853.23	117
2853.57	153
2853.92	113
2854.27	137
2854.62	95
2854.97	141
2855.32	127
2855.67	91
2856.02	169
2856.37	77
2856.72	155
2857.07	105
2857.42	153
2857.76	127
2858.11	131
2858.46	111
2858.81	133
2859.16	125
2859.51	117
2859.86	143
2860.21	101
2860.56	137
2860.91	87
2861.25	147
2861.6	143
2861.95	107
2862.3	115
2862.65	145
2863	121
2863.35	145
2863.69	131
2864.04	101
2864.39	151
2864.74	111
2865.09	117
2865.44	145
2865.78	95
2866.13	137
2866.48	135
2866.83	105
2867.18	169
2867.53	93
2867.88	135
2868.22	115
2868.57	125
2868.92	121
2869.27	127
2869.62	109
2869.96	111
2870.31	141
2870.66	93
2871.01	167
2871.36	67
2871.7	151
2872.05	115
2872.4	121
2872.75	153
2873.1	101
2873.44	141
2873.79	113
2874.14	157
2874.49	95
2874.84	161
2875.18	71
2875.53	151
2875.88	125
2876.23	129
2876.57	159
2876.92	81
2877.27	149
2877.62	87
2877.97	135
2878.31	101
2878.66	137
2879.01	75
2879.36	147
2879.7	119
2880.05	107
2880.4	143
2880.74	87
2881.09	137
2881.44	115
2881.79	121
2882.13	135
2882.48	119
2882.83	99
2883.18	129
2883.52	127
2883.87	129
2884.22	121
2884.56	101
2884.91	139
2885.26	129
2885.61	125
2885.95	149
2886.3	111
2886.65	99
2886.99	129
2887.34	127
2887.69	133
2888.03	101
2888.38	107
2888.73	121
2889.07	135
2889.42	101
2889.77	163
2890.11	97
2890.46	123
2890.81	133
2891.15	101
2891.5	167
2891.85	69
2892.19	139
2892.54	123
2892.89	175
2893.23	97
2893.58	149
2893.93	105
2894.27	147
2894.62	131
2894.96	119
2895.31	179
2895.66	51
2896	159
2896.35	118.9
2896.7	138.476
2897.04	125.138
2897.39	105.739
2897.73	116.56
2898.08	111.588
2898.43	125.057
2898.77	96.5753
2899.12	144.344
2899.46	67.6033
2899.81	147.739
2900.16	125.288
2900.5	141.25
2900.85	136.106
2901.19	112.091
2901.54	119.96
2901.88	140.01
2902.23	139.111
2902.58	134.814
2902.92	123.916
2903.27	97.2874
2903.61	143.844
2903.96	130.318
2904.31	125.636
2904.65	127.718
2905	111.513
2905.34	121.326
2905.69	128.543
2906.03	111.161
2906.38	146.797
2906.72	130.951
2907.07	103.661
2907.42	132.553
2907.76	127.643
2908.11	133.888
2908.45	110.868
2908.8	110.906
2909.14	140.79
2909.49	122.54
2909.83	122.092
2910.18	141.193
2910.52	113.003
2910.87	121.443
2911.21	119.268
2911.56	144.797
2911.9	130.398
2912.25	118.161
2912.59	104.159
2912.94	135.334
2913.28	144.535
2913.63	120.252
2913.97	133.969
2914.32	106.679
2914.66	127.785
2915.01	118.068
2915.35	132.746
2915.7	122.781
2916.04	118.124
2916.39	104.436
2916.73	116.612
2917.08	128.634
2917.42	107.283
2917.77	124.992
2918.11	119.147
2918.46	124.47
2918.8	112.802
2919.15	122.087
2919.49	131.515
2919.83	122.054
2920.18	120.722
2920.52	113.932
2920.87	131.403
2921.21	120.131
2921.56	131.064
2921.9	120.508
2922.24	127.06
2922.59	133.54
2922.93	131.065
2923.28	132.057
2923.62	124.731
2923.97	120.772
2924.31	117.266
2924.65	144.633
2925	118.605
2925.34	111.698
2925.69	103.629
2926.03	107.209
2926.38	128.25
2926.72	130.259
2927.06	119.567
2927.41	116.891
2927.75	127.832
2928.09	123.331
2928.44	149.826
2928.78	142.478
2929.13	114.136
2929.47	141.305
2929.81	108.286
2930.16	125.84
2930.5	151.087
2930.79	99
2931.14	177
2931.49	77
2931.84	137
2932.19	123
2932.54	137
2932.88	103
2933.23	159
2933.58	121
2933.93	125
2934.28	153
2934.63	83
2934.97	173
2935.32	69
2935.67	151
2936.02	115
2936.37	137
2936.71	117
2937.06	103
2937.41	115
2937.76	113
2938.11	135
2938.46	71
2938.8	163
2939.15	81
2939.5	163
2939.85	121
2940.19	115
2940.54	125
2940.89	109
2941.24	135
2941.59	127
2941.93	129
2942.28	95
2942.63	147
2942.98	91
2943.32	157
2943.67	79
2944.02	129
2944.37	151
2944.72	93
2945.06	129
2945.41	129
2945.76	143
2946.11	97
2946.45	145
2946.8	99
2947.15	153
2947.49	99
2947.84	111
2948.19	127
2948.54	85
2948.88	129
2949.23	127
2949.58	119
2949.93	135
2950.27	97
2950.62	103
2950.97	143
2951.31	117
2951.66	127
2952.01	143
2952.35	111
2952.7	117
2953.05	123
2953.4	115
2953.74	153
2954.09	85
2954.44	151
2954.78	135
2955.13	115
2955.48	149
2955.82	103
2956.17	129
2956.52	109
2956.86	147
2957.21	97
2957.56	177
2957.9	95
2958.25	151
2958.6	123
2958.94	103
2959.29	165
2959.64	79
2959.98	137
2960.33	93
2960.68	149
2961.02	115
2961.37	157
2961.72	79
2962.06	151
2962.41	135
2962.76	95
2963.1	159
2963.45	87
2963.79	165
2964.14	99
2964.49	149
2964.83	123
2965.18	125
2965.52	93
2965.87	139
2966.22	117
2966.56	101
2966.91	151
2967.25	93
2967.6	155
2967.95	85
2968.29	141
2968.64	133
2968.98	105
2969.33	103
2969.68	125
2970.02	137
2970.37	101
2970.71	131
2971.06	91
2971.4	141
2971.75	115
2972.1	123
2972.44	143
2972.79	93
2973.13	117
2973.48	143
2973.82	117
2974.17	123
2974.51	119
2974.86	111
2975.21	141
2975.55	117
2975.9	121
2976.24	131
2976.59	111
2976.93	117
2977.28	131
2977.62	113
2977.97	149
2978.31	95
2978.66	143
2979	107
2979.35	117
2979.69	135
2980.04	137
2980.38	113
2980.73	105
2981.07	139
2981.42	97
2981.76	181
2982.11	89
2982.45	149
2982.8	129
2983.14	117
2983.49	133
2983.83	111
2984.18	129
2984.52	119
2984.87	145
2985.21	123
2985.56	169
2985.9	69
2986.25	151
2986.59	115
2986.94	129
2987.28	143
2987.62	105
2987.97	137
2988.31	109
2988.66	143
2989	109
2989.35	155
2989.69	61
2990.03	151
2990.38	111
2990.72	133
2991.07	141
2991.41	97
2991.76	149
2992.1	119
2992.44	131
2992.79	123
2993.13	131
2993.48	97
2993.82	149
2994.17	137
2994.51	111
2994.85	117
2995.2	91
2995.54	129
2995.89	119
2996.23	117
2996.57	155
2996.92	107
2997.26	121
2997.6	129
2997.95	119
2998.29	119
2998.64	101
2998.98	111
2999.32	137
2999.67	141
