#Acq. time (s)=	30
#Accumulations=	1
#Range (cm-¹)=	1050...3000 (30 s) 
#Windows=	6
#Auto scanning=	Off
#Autofocus=	Off
#AutoExposure=	Off
#Spike filter=	Off
#Delay time (s)=	0
#Binning=	1
#Readout mode=	Signal
#DeNoise=	Off
#ICS correction=	Off
#Dark correction=	Off
#Inst. Process=	Off
#Detector Gain=	High Sensitivity
#Detector ADC=	45 kHz       
#Detector temperature (°C)=	-60.1
#Instrument=	LabRAM
#Detector=	Syncerity
#Objective=	x50LWD
#Grating=	1800
#Filter=	25%
#Laser (nm)=	532
#Hole=	100
#E-Cal_Neon=	0
#StageXY=	Marzhauser
#StageZ=	Marzhauser
#X (µm)=	0
#Y (µm)=	0
#Z (µm)=	-1678.85
#Spectral res.(cm-¹)=	1.9
#Full time(mm:ss)=	3:09
#AC=	Not calibrated
#Project=	
#Sample=	
#Site=	
#Title=	Spot 1 450K reverse
#Remark=	
#Date=	19.02.2026 12:39
#Acquired=	19.02.2026 12:39:59
#Edit:Spike=	19.02.2026 12:40:55
#Edit:Spike=	19.02.2026 12:40:58
#Edit:Spike=	19.02.2026 12:42:43
#AxisType[0]=Intens
#AxisUnit[0]=Cnt
#AxisType[1]=Spectr
#AxisUnit[1]=1/cm
1050.13	159
1050.59	83
1051.05	133
1051.51	105
1051.97	147
1052.44	97
1052.9	127
1053.36	113
1053.82	157
1054.28	113
1054.74	149
1055.2	131
1055.67	93
1056.13	155
1056.59	129
1057.05	123
1057.51	101
1057.97	89
1058.43	121
1058.89	133
1059.36	91
1059.82	109
1060.28	125
1060.74	117
1061.2	133
1061.66	129
1062.12	97
1062.58	171
1063.04	109
1063.5	141
1063.96	131
1064.43	89
1064.89	151
1065.35	131
1065.81	129
1066.27	101
1066.73	151
1067.19	95
1067.65	145
1068.11	101
1068.57	141
1069.03	131
1069.49	95
1069.95	157
1070.41	81
1070.87	163
1071.33	109
1071.79	151
1072.25	119
1072.71	143
1073.17	99
1073.63	139
1074.09	113
1074.55	101
1075.01	159
1075.47	85
1075.93	169
1076.39	89
1076.85	137
1077.31	137
1077.77	119
1078.23	125
1078.69	137
1079.15	117
1079.61	131
1080.07	149
1080.53	109
1080.99	143
1081.45	103
1081.91	127
1082.37	159
1082.83	111
1083.29	119
1083.75	147
1084.21	123
1084.66	131
1085.12	87
1085.58	127
1086.04	119
1086.5	129
1086.96	109
1087.42	141
1087.88	95
1088.34	131
1088.8	123
1089.25	91
1089.71	175
1090.17	65
1090.63	153
1091.09	113
1091.55	135
1092.01	121
1092.47	125
1092.92	113
1093.38	111
1093.84	139
1094.3	89
1094.76	153
1095.22	89
1095.68	163
1096.13	125
1096.59	143
1097.05	145
1097.51	107
1097.97	131
1098.43	111
1098.88	125
1099.34	117
1099.8	141
1100.26	67
1100.72	145
1101.17	121
1101.63	115
1102.09	139
1102.55	109
1103.01	133
1103.46	113
1103.92	135
1104.38	127
1104.84	125
1105.29	85
1105.75	145
1106.21	135
1106.67	115
1107.12	121
1107.58	101
1108.04	123
1108.5	131
1108.95	115
1109.41	161
1109.87	85
1110.33	119
1110.78	125
1111.24	149
1111.7	121
1112.16	123
1112.61	109
1113.07	137
1113.53	145
1113.98	81
1114.44	181
1114.9	79
1115.35	137
1115.81	145
1116.27	123
1116.72	157
1117.18	75
1117.64	137
1118.1	139
1118.55	157
1119.01	103
1119.47	149
1119.92	81
1120.38	145
1120.84	125
1121.29	111
1121.75	167
1122.2	51
1122.66	159
1123.12	129
1123.57	157
1124.03	105
1124.49	143
1124.94	103
1125.4	167
1125.86	133
1126.31	137
1126.77	147
1127.22	89
1127.68	143
1128.14	127
1128.59	135
1129.05	147
1129.5	121
1129.96	119
1130.41	145
1130.87	95
1131.33	137
1131.78	129
1132.24	109
1132.69	135
1133.15	141
1133.61	115
1134.06	141
1134.52	101
1134.97	113
1135.43	129
1135.88	81
1136.34	155
1136.79	95
1137.25	135
1137.7	99
1138.16	145
1138.61	101
1139.07	129
1139.52	111
1139.98	133
1140.43	115
1140.89	89
1141.34	171
1141.8	75
1142.25	151
1142.71	103
1143.16	133
1143.62	119
1144.07	113
1144.53	139
1144.98	127
1145.44	137
1145.89	67
1146.35	159
1146.8	83
1147.26	163
1147.71	107
1148.16	121
1148.62	149
1149.07	115
1149.53	137
1149.98	123
1150.44	133
1150.89	123
1151.35	145
1151.8	121
1152.25	139
1152.71	105
1153.16	113
1153.62	157
1154.07	127
1154.52	135
1154.98	149
1155.43	127
1155.89	149
1156.34	101
1156.79	143
1157.25	157
1157.7	117
1158.16	123
1158.61	135
1159.06	111
1159.52	115
1159.97	163
1160.42	103
1160.88	173
1161.33	79
1161.78	139
1162.24	97
1162.69	103
1163.14	115
1163.6	141
1164.05	129
1164.5	93
1164.96	159
1165.41	89
1165.86	163
1166.32	73
1166.77	171
1167.22	121
1167.68	149
1168.13	155
1168.58	103
1169.04	145
1169.49	103
1169.94	151
1170.39	119
1170.85	139
1171.3	69
1171.75	147
1172.2	133
1172.66	125
1173.11	125
1173.56	83
1174.01	151
1174.47	121
1174.92	125
1175.37	139
1175.82	97
1176.28	121
1176.73	123
1177.18	129
1177.63	125
1178.09	103
1178.54	139
1178.99	127
1179.44	153
1179.89	107
1180.35	177
1180.8	79
1181.25	157
1181.7	141.3
1182.15	124.5
1182.61	169
1183.06	93
1183.51	143
1183.96	123
1184.41	149
1184.87	83
1185.32	169
1185.77	81
1186.22	151
1186.67	123
1187.12	131
1187.58	141
1188.03	83
1188.48	145
1188.93	113
1189.38	147
1189.83	101
1190.28	129
1190.73	93
1191.19	153
1191.64	113
1192.09	119
1192.54	137
1192.99	75
1193.44	147
1193.89	133
1194.34	133
1194.8	109
1195.25	115
1195.7	131
1196.15	139
1196.6	111
1197.05	121
1197.5	127
1197.95	117
1198.4	145
1198.85	131
1199.3	101
1199.75	129
1200.2	117
1200.66	137
1201.11	149
1201.56	107
1202.01	163
1202.46	91
1202.91	149
1203.36	111
1203.81	149
1204.26	95
1204.71	143
1205.16	93
1205.61	123
1206.06	145
1206.51	77
1206.96	169
1207.41	79
1207.86	141
1208.31	113
1208.76	139
1209.21	125
1209.66	133
1210.11	117
1210.56	153
1211.01	131
1211.46	97
1211.91	163
1212.36	81
1212.81	159
1213.26	83
1213.71	151
1214.16	145
1214.61	129
1215.05	119
1215.51	135
1215.95	113
1216.4	125
1216.85	171
1217.3	89
1217.75	177
1218.2	103
1218.65	137
1219.1	149
1219.55	113
1220	131
1220.45	133
1220.9	117
1221.34	125
1221.79	119
1222.24	125
1222.69	125
1223.14	101
1223.59	133.16
1224.04	147.8
1224.49	167
1224.94	125
1225.38	143
1225.83	107
1226.28	159
1226.73	71
1227.18	153
1227.63	127
1228.07	117
1228.52	137
1228.97	105
1229.42	129
1229.87	137
1230.32	149.9
1230.76	149.5
1231.21	139.68
1231.66	103
1232.11	159
1232.56	127
1233.01	105
1233.45	151
1233.9	97
1234.35	139
1234.8	99
1235.25	143
1235.69	125
1236.14	147
1236.59	57
1237.04	153
1237.49	119
1237.93	117
1238.38	149
1238.83	81
1239.28	123
1239.72	115
1240.17	147
1240.62	123
1241.07	133
1241.51	85
1241.96	165
1242.41	133
1242.86	113
1243.3	127
1243.75	105
1244.2	155
1244.65	123
1245.09	121
1245.54	131
1245.99	97
1246.44	117
1246.88	137
1247.33	133
1247.78	135
1248.22	125
1248.67	125
1249.12	115
1249.56	145
1250.01	105
1250.46	161
1250.9	95
1251.35	145
1251.8	147
1252.24	129
1252.69	167
1253.14	89
1253.58	159
1254.03	105
1254.48	163
1254.92	91
1255.37	171
1255.82	85
1256.26	151
1256.71	139
1257.15	117
1257.6	137
1258.05	53
1258.49	163
1258.94	131
1259.39	171
1259.83	107
1260.28	119
1260.72	121
1261.17	177
1261.62	119
1262.06	99
1262.51	143
1262.95	81
1263.4	149
1263.85	131
1264.29	127
1264.74	119
1265.18	129
1265.63	123
1266.07	147
1266.52	93
1266.97	149
1267.41	125
1267.86	125
1268.3	147
1268.75	129
1269.19	127
1269.64	141
1270.08	81
1270.53	151
1270.97	151
1271.42	99
1271.86	167
1272.31	85
1272.76	159
1273.2	113
1273.64	145
1274.09	103
1274.53	125
1274.98	105
1275.42	153
1275.87	135
1276.31	71
1276.76	161
1277.2	81
1277.65	181
1278.09	97
1278.54	165
1278.98	135
1279.43	117
1279.87	123
1280.32	141
1280.76	143
1281.21	95
1281.65	161
1282.09	81
1282.54	159
1282.98	97
1283.43	147
1283.87	151
1284.32	103
1284.76	107
1285.21	135
1285.65	131
1286.09	123
1286.54	137
1286.98	119
1287.42	147
1287.87	123
1288.31	129
1288.76	153
1289.2	115
1289.64	107
1290.09	131
1290.53	117
1290.98	133
1291.42	95
1291.86	135
1292.31	155
1292.75	115
1293.19	121
1293.64	137
1294.08	109
1294.53	105
1294.97	151
1295.41	111
1295.85	163
1296.3	77
1296.74	157
1297.19	139
1297.63	131
1298.07	113
1298.51	101
1298.96	115
1299.4	97
1299.84	159
1300.29	87
1300.73	171
1301.17	65
1301.62	157
1302.06	115
1302.5	123
1302.94	147
1303.39	87
1303.83	151
1304.27	91
1304.72	167
1305.16	107
1305.6	145
1306.04	83
1306.49	153
1306.93	119
1307.37	127
1307.81	159
1308.26	107
1308.7	153
1309.14	131
1309.58	151
1310.03	145
1310.47	119
1310.91	105
1311.35	161
1311.8	137
1312.24	123
1312.68	131
1313.12	113
1313.56	141
1314	131
1314.45	119
1314.89	157
1315.33	107
1315.77	117
1316.22	157
1316.66	101
1317.1	163
1317.54	109
1317.98	141
1318.43	137
1318.87	149
1319.31	105
1319.75	151
1320.19	85
1320.63	137
1321.07	139
1321.51	121
1321.96	179
1322.4	87
1322.84	163
1323.28	137
1323.72	159
1324.16	119
1324.6	149
1325.05	107
1325.49	145
1325.93	161
1326.37	121
1326.81	169
1327.25	89
1327.69	171
1328.13	97
1328.57	139
1329.02	121
1329.45	125
1329.9	119
1330.34	139
1330.78	121
1331.22	111
1331.66	165
1332.1	65
1332.54	173
1332.98	135
1333.42	143
1333.86	153
1334.3	103
1334.74	139
1335.18	141
1335.62	129
1336.07	141
1336.5	105
1336.95	125
1337.39	141
1337.83	135
1338.27	127
1338.71	143
1339.15	113
1339.59	113
1340.03	159
1340.47	95
1340.91	169
1341.35	97
1341.79	157
1342.23	131
1342.67	139
1343.11	127
1343.55	117
1343.99	125
1344.43	147
1344.86	157
1345.31	97
1345.74	189
1346.18	99
1346.62	129
1347.06	119
1347.5	141
1347.94	115
1348.38	113
1348.82	143
1349.26	133
1349.7	143
1350.14	103
1350.58	175
1351.02	101
1351.46	173
1351.9	95
1352.33	141
1352.77	151
1353.21	103
1353.65	139
1354.09	147
1354.53	133
1354.97	137
1355.41	133
1355.85	131
1356.29	147
1356.72	111
1357.16	115
1357.6	145
1358.04	103
1358.48	123
1358.92	153
1359.36	113
1359.79	167
1360.23	101
1360.67	153
1361.11	133
1361.55	107
1361.99	133
1362.43	107
1362.87	127
1363.3	117
1363.74	147
1364.18	97
1364.62	183
1365.06	99
1365.49	153
1365.93	127
1366.37	113
1366.81	161
1367.25	93
1367.68	141
1368.12	113
1368.56	141
1369	99
1369.44	173
1369.87	81
1370.31	171
1370.75	125
1371.19	117
1371.62	147
1372.06	111
1372.5	155
1372.94	121
1373.37	139
1373.81	125
1374.25	153
1374.69	97
1375.12	163
1375.56	125
1376	121
1376.44	143
1376.87	73
1377.31	151
1377.75	125
1378.19	135
1378.62	147
1379.06	113
1379.5	109
1379.93	155
1380.37	121
1380.81	137
1381.25	109
1381.68	121
1382.12	141
1382.56	143
1382.99	113
1383.43	155
1383.87	105
1384.3	143
1384.74	131
1385.18	121
1385.61	149
1386.05	77
1386.49	141
1386.92	97
1387.36	159
1387.8	93
1388.23	153
1388.67	101
1389.1	131
1389.54	157
1389.98	101
1390.41	167
1390.85	51
1391.29	157
1391.72	133
1392.16	141
1392.59	113
1393.03	137
1393.47	109
1393.9	155
1394.34	139
1394.77	91
1395.21	157
1395.65	97
1396.08	161
1396.52	117
1396.95	135
1397.39	119
1397.82	113
1398.26	131
1398.7	139
1399.13	125
1399.57	129
1400	143
1400.44	85
1400.87	149
1401.31	131
1401.74	127
1402.18	133
1402.62	115
1403.05	129
1403.49	121
1403.92	103
1404.36	139
1404.79	93
1405.23	129
1405.66	119
1406.1	127
1406.53	131
1406.97	117
1407.4	111
1407.84	127
1408.27	145
1408.71	93
1409.14	167
1409.58	63
1410.01	155
1410.45	121
1410.88	131
1411.31	131
1411.75	87
1412.18	135
1412.62	107
1413.05	153
1413.49	91
1413.92	171
1414.36	103
1414.79	167
1415.23	131
1415.66	107
1416.1	155
1416.53	85
1416.96	153
1417.4	121
1417.83	139
1418.27	91
1418.7	131
1419.13	97
1419.57	153
1420	109
1420.44	127
1420.87	149
1421.3	83
1421.74	141
1422.17	123
1422.61	125
1423.04	119
1423.47	117
1423.91	115
1424.34	147
1424.77	105
1425.21	145
1425.64	121
1426.07	97
1426.51	131
1426.94	147
1427.38	117
1427.81	123
1428.24	83
1428.68	137
1429.11	143
1429.54	111
1429.98	129
1430.41	121
1430.84	131
1431.28	99
1431.71	153
1432.14	103
1432.57	151
1433.01	85
1433.44	151
1433.87	139
1434.31	105
1434.74	175
1435.17	81
1435.61	151
1436.04	81
1436.47	151
1436.9	93
1437.34	143
1437.77	89
1438.2	141
1438.63	127
1439.07	101
1439.5	177
1439.93	99
1440.36	153
1440.8	97
1441.23	141
1441.66	133
1442.09	141
1442.53	85
1442.96	157
1443.39	127
1443.82	133
1444.26	157
1444.69	103
1445.12	141
1445.55	91
1445.98	113
1446.42	135
1446.85	103
1447.28	107
1447.71	141
1448.14	97
1448.57	129
1449.01	103
1449.44	127
1449.87	137
1450.3	107
1450.73	125
1451.17	157
1451.6	99
1452.03	111
1452.46	133
1452.89	117
1453.32	165
1453.76	73
1454.19	143
1454.62	105
1455.05	175
1455.48	117
1455.91	131
1456.34	105
1456.77	113
1457.21	137
1457.64	111
1458.07	161
1458.5	47.3137
1458.93	170.136
1459.36	109.551
1459.79	121.054
1460.22	115.254
1460.65	117.088
1461.08	117.482
1461.52	128.649
1461.95	144.373
1462.38	103.104
1462.81	154.809
1463.24	73.5742
1463.67	146.131
1464.1	126.186
1464.53	118.13
1464.96	135.972
1465.39	107.189
1465.82	138.523
1466.25	132.999
1466.68	130.388
1467.11	128.305
1467.54	125.783
1467.98	99.5785
1468.41	129.377
1468.84	118.083
1469.27	116.828
1469.7	120.208
1470.13	116.677
1470.56	126.558
1470.99	134.717
1471.42	102.075
1471.85	135.901
1472.28	92.9551
1472.71	118.308
1473.14	133.845
1473.57	122.105
1474	128.305
1474.43	120.083
1474.86	100.781
1475.29	131.65
1475.72	141.061
1476.15	101.602
1476.58	155.155
1477.01	95.7079
1477.44	137.131
1477.87	121.763
1478.3	128.235
1478.72	122.48
1479.15	110.279
1479.58	108.882
1480.01	120.422
1480.44	141.51
1480.87	91.6199
1481.3	162.412
1481.73	82.7153
1482.16	157.918
1482.59	114.975
1483.02	130.072
1483.45	142.575
1483.88	110.498
1484.31	114.764
1484.74	112.833
1485.17	139.88
1485.59	97.6761
1486.02	143.089
1486.45	81.9559
1486.88	143.226
1487.31	127.486
1487.74	136.238
1488.17	136.526
1488.6	113.79
1489.02	125.801
1489.45	121.706
1489.88	143.712
1490.31	122.883
1490.74	135.933
1491.17	100.715
1491.6	138.218
1492.03	144.617
1492.45	127.85
1492.88	138.276
1493.31	136.286
1493.74	142.42
1494.17	128.265
1494.6	124.314
1495.02	115.659
1495.45	129.11
1495.88	113.638
1496.31	135.734
1496.74	141.016
1497.17	135.718
1497.59	129.191
1498.02	120.353
1498.45	120.564
1498.88	138.443
1499.31	129.532
1499.73	118.989
1500.16	118.696
1500.59	116.354
1501.02	124.058
1501.45	133.466
1501.87	126.16
1502.13	119
1502.56	113
1502.99	95
1503.43	131
1503.86	137
1504.29	97
1504.72	163
1505.16	57
1505.59	139
1506.02	125
1506.46	129
1506.89	141
1507.32	97
1507.75	129
1508.19	147
1508.62	129
1509.05	73
1509.49	179
1509.92	81
1510.35	163
1510.78	127
1511.21	139
1511.65	153
1512.08	75
1512.51	121
1512.94	111
1513.38	159
1513.81	87
1514.24	161
1514.67	91
1515.11	157
1515.54	113
1515.97	119
1516.4	145
1516.83	89
1517.27	135
1517.7	125
1518.13	145
1518.56	105
1518.99	137
1519.42	99
1519.86	147
1520.29	119
1520.72	111
1521.15	147
1521.58	107
1522.01	157
1522.45	121
1522.88	133
1523.31	119
1523.74	129
1524.17	125
1524.6	151
1525.04	111
1525.47	129
1525.9	141
1526.33	117
1526.76	131
1527.19	127
1527.62	105
1528.05	131
1528.49	97
1528.92	111
1529.35	129
1529.78	99
1530.21	133
1530.64	125
1531.07	129
1531.5	137
1531.93	169
1532.37	101
1532.8	163
1533.23	101
1533.66	147
1534.09	147
1534.52	121
1534.95	171
1535.38	93
1535.81	155
1536.24	127
1536.67	153
1537.1	121
1537.53	161
1537.96	115
1538.39	149
1538.82	129
1539.26	109
1539.68	157
1540.12	87
1540.55	149
1540.98	93
1541.41	143
1541.84	115
1542.27	131
1542.7	97
1543.13	145
1543.56	125
1543.99	113
1544.42	169
1544.85	103
1545.28	171
1545.71	99
1546.14	139
1546.57	117
1547	113
1547.43	101
1547.86	155
1548.29	155
1548.72	143
1549.14	147
1549.57	83
1550.01	153
1550.43	115
1550.86	135
1551.29	157
1551.72	107
1552.15	109
1552.58	139
1553.01	117
1553.44	151
1553.87	121
1554.3	131
1554.73	123
1555.16	151
1555.59	113
1556.01	157
1556.44	111
1556.87	155
1557.3	155
1557.73	143
1558.16	177
1558.59	75
1559.02	151
1559.45	111
1559.88	157
1560.3	117
1560.73	161
1561.16	133
1561.59	145
1562.02	173
1562.45	131
1562.88	181
1563.31	81
1563.73	173
1564.16	141
1564.59	151
1565.02	115
1565.45	147
1565.88	133
1566.3	147
1566.73	145
1567.16	137
1567.59	183
1568.02	89
1568.45	161
1568.88	155
1569.3	167
1569.73	145
1570.16	153
1570.59	143
1571.01	165
1571.44	167
1571.87	159
1572.3	163
1572.73	117
1573.15	175
1573.58	151
1574.01	165
1574.44	167
1574.87	141
1575.29	175
1575.72	185
1576.15	133
1576.58	171
1577	167
1577.43	193
1577.86	169
1578.29	207
1578.71	155
1579.14	197
1579.57	191
1580	179
1580.42	195
1580.85	143
1581.28	231
1581.71	123
1582.13	203
1582.56	161
1582.99	231
1583.41	163
1583.84	215
1584.27	195
1584.7	207
1585.12	245
1585.55	189
1585.98	319
1586.4	213
1586.83	297
1587.26	259
1587.68	299
1588.11	305
1588.54	283
1588.96	301
1589.39	319
1589.82	331
1590.24	289
1590.67	365
1591.1	303
1591.52	389
1591.95	313
1592.38	331
1592.8	355
1593.23	309
1593.65	325
1594.08	341
1594.51	309
1594.93	285
1595.36	315
1595.79	243
1596.21	289
1596.64	239
1597.06	261
1597.49	261
1597.92	207
1598.34	203
1598.77	243
1599.19	241
1599.62	229
1600.05	187
1600.47	189
1600.9	207
1601.32	175
1601.75	183
1602.18	205
1602.6	153
1603.03	169
1603.45	193
1603.88	149
1604.3	227
1604.73	133
1605.15	183
1605.58	143
1606	151
1606.43	187
1606.86	141
1607.28	137
1607.71	107
1608.13	171
1608.56	115
1608.98	191
1609.41	83
1609.83	171
1610.26	139
1610.68	129
1611.11	169
1611.53	97
1611.96	151
1612.38	121
1612.81	159
1613.23	119
1613.66	157
1614.08	87
1614.51	175
1614.93	129
1615.36	137
1615.78	169
1616.21	123
1616.63	161
1617.06	117
1617.48	151
1617.9	133
1618.33	155
1618.75	93
1619.18	175
1619.6	117
1620.03	149
1620.45	151
1620.88	105
1621.3	143
1621.72	127
1622.15	151
1622.57	145
1623	121
1623.42	93
1623.85	157
1624.27	125
1624.69	129
1625.12	125
1625.54	105
1625.97	123
1626.39	155
1626.81	131
1627.24	171
1627.66	81
1628.08	133
1628.51	139
1628.93	121
1629.36	141
1629.78	87
1630.2	135
1630.63	111
1631.05	181
1631.47	89
1631.9	183
1632.32	87
1632.74	149
1633.17	137
1633.59	125
1634.01	161
1634.44	67
1634.86	141
1635.28	121
1635.71	159
1636.13	103
1636.55	149
1636.98	95
1637.4	151
1637.82	137
1638.25	111
1638.67	165
1639.09	67
1639.51	159
1639.94	131
1640.36	133
1640.78	127
1641.21	125
1641.63	113
1642.05	151
1642.47	115
1642.9	133
1643.32	137
1643.74	91
1644.17	141
1644.59	145
1645.01	149
1645.43	139
1645.86	93
1646.28	119
1646.7	131
1647.12	97
1647.55	127
1647.97	115
1648.39	125
1648.81	143
1649.23	131
1649.66	107
1650.08	161
1650.5	111
1650.92	139
1651.35	139
1651.77	91
1652.19	155
1652.61	107
1653.03	143
1653.45	101
1653.88	159
1654.3	95
1654.72	153
1655.14	101
1655.56	143
1655.99	133
1656.41	91
1656.83	185
1657.25	63
1657.67	151
1658.09	77
1658.52	139
1658.94	111
1659.36	137
1659.78	89
1660.2	143
1660.62	113
1661.04	105
1661.47	149
1661.89	79
1662.31	141
1662.73	83
1663.15	129
1663.57	133
1663.99	113
1664.41	99
1664.83	125
1665.26	127
1665.68	137
1666.1	123
1666.52	99
1666.94	147
1667.36	125
1667.78	119
1668.2	145
1668.62	105
1669.04	101
1669.46	111
1669.89	115
1670.31	137
1670.73	97
1671.15	107
1671.57	115
1671.99	125
1672.41	97
1672.83	141
1673.25	99
1673.67	123
1674.09	135
1674.51	99
1674.93	161
1675.35	73
1675.77	161
1676.19	117
1676.61	163
1677.03	117
1677.45	139
1677.87	101
1678.29	109
1678.71	159
1679.13	95
1679.55	163
1679.97	51
1680.39	159
1680.81	107
1681.23	133
1681.65	107
1682.07	133
1682.49	107
1682.91	97
1683.33	123
1683.75	91
1684.17	149
1684.59	67
1685.01	147
1685.43	115
1685.85	139
1686.27	137
1686.69	107
1687.11	141
1687.53	131
1687.95	127
1688.37	113
1688.78	129
1689.2	75
1689.62	139
1690.04	119
1690.46	151
1690.88	127
1691.3	101
1691.72	139
1692.14	141
1692.56	123
1692.98	131
1693.39	111
1693.81	95
1694.23	137
1694.65	121
1695.07	113
1695.49	129
1695.91	89
1696.33	141
1696.75	131
1697.16	85
1697.58	149
1698	73
1698.42	127
1698.84	123
1699.26	133
1699.68	133
1700.09	111
1700.51	101
1700.93	123
1701.35	137
1701.77	83
1702.19	177
1702.6	63
1703.02	147
1703.44	107
1703.86	119
1704.28	123
1704.69	93
1705.11	145
1705.53	101
1705.95	143
1706.37	77
1706.78	169
1707.2	87
1707.62	125
1708.04	107
1708.46	123
1708.87	171
1709.29	83
1709.71	133
1710.13	103
1710.54	141
1710.96	101
1711.38	137
1711.8	105
1712.22	155
1712.63	103
1713.05	123
1713.47	153
1713.89	105
1714.3	155
1714.72	129
1715.14	121
1715.56	137
1715.97	99
1716.39	111
1716.81	137
1717.22	83
1717.64	127
1718.06	149
1718.48	93
1718.89	125
1719.31	133
1719.73	97
1720.14	139
1720.56	105
1720.98	141
1721.39	137
1721.81	107
1722.23	103
1722.64	113
1723.06	121
1723.48	95
1723.89	135
1724.31	91
1724.73	159
1725.14	73
1725.56	145
1725.98	119
1726.39	101
1726.81	163
1727.23	89
1727.64	163
1728.06	83
1728.48	155
1728.89	93
1729.31	173
1729.72	89
1730.14	151
1730.56	125
1730.97	75
1731.39	161
1731.8	87
1732.22	131
1732.64	99
1733.05	141
1733.47	101
1733.89	123
1734.3	81
1734.72	139
1735.13	133
1735.55	107
1735.96	153
1736.38	95
1736.8	129
1737.21	105
1737.63	119
1738.04	137
1738.46	121
1738.87	87
1739.29	133
1739.71	109
1740.12	131
1740.54	121
1740.95	117
1741.37	135
1741.78	111
1742.2	101
1742.61	143
1743.03	95
1743.44	105
1743.86	141
1744.27	127
1744.69	135
1745.1	91
1745.52	127
1745.93	105
1746.35	137
1746.77	109
1747.18	157
1747.59	59
1748.01	111
1748.42	125
1748.84	113
1749.25	145
1749.67	51
1750.08	143
1750.5	97
1750.91	149
1751.33	93
1751.74	135
1752.16	79
1752.57	137
1752.99	155
1753.4	91
1753.81	167
1754.23	61
1754.64	139
1755.06	125
1755.47	139
1755.89	97
1756.3	127
1756.72	105
1757.13	119
1757.54	133
1757.96	115
1758.37	153
1758.78	61
1759.2	147
1759.61	109
1760.03	121
1760.44	111
1760.86	123
1761.27	113
1761.68	135
1762.1	115
1762.51	125
1762.92	119
1763.34	103
1763.75	141
1764.17	123
1764.58	113
1764.99	105
1765.41	81
1765.82	135
1766.23	139
1766.65	103
1767.06	147
1767.47	93
1767.89	121
1768.3	129
1768.71	127
1769.13	99
1769.54	125
1769.95	91
1770.37	127
1770.78	131
1771.19	87
1771.61	171
1772.02	81
1772.43	145
1772.85	91
1773.26	133
1773.67	107
1774.09	123
1774.5	103
1774.91	121
1775.32	147
1775.74	53
1776.15	155
1776.56	73
1776.97	151
1777.39	113
1777.8	129
1778.21	119
1778.62	99
1779.04	95
1779.45	119
1779.86	137
1780.28	89
1780.69	155
1781.1	71
1781.51	139
1781.92	87
1782.34	117
1782.75	135
1783.16	117
1783.57	123
1783.99	129
1784.4	125
1784.81	117
1785.22	139
1785.63	91
1786.05	141
1786.46	87
1786.87	125
1787.28	137
1787.69	89
1788.11	119
1788.52	121
1788.93	109
1789.34	131
1789.75	97
1790.17	103
1790.58	139
1790.99	111
1791.4	119
1791.81	131
1792.22	91
1792.63	109
1793.05	147
1793.46	107
1793.87	145
1794.28	91
1794.69	129
1795.1	117
1795.52	105
1795.93	127
1796.34	85
1796.75	113
1797.16	83
1797.57	151
1797.98	73
1798.39	159
1798.81	57
1799.22	153
1799.63	95
1800.04	109
1800.45	139
1800.86	103
1801.27	139
1801.68	89
1802.09	137
1802.5	83
1802.91	155
1803.32	47
1803.73	135
1804.15	111
1804.56	113
1804.97	145
1805.38	89
1805.79	169
1806.2	105
1806.61	143
1807.02	115
1807.43	121
1807.84	81
1808.25	145
1808.66	113
1809.07	107
1809.48	131
1809.89	95
1810.3	119
1810.71	97
1811.12	123
1811.53	115
1811.94	107
1812.35	87
1812.76	113
1813.17	111
1813.58	113
1813.99	109
1814.4	103
1814.81	125
1815.22	133
1815.63	81
1816.04	161
1816.45	85
1816.86	117
1817.27	119
1817.68	113
1818.09	161
1818.5	75
1818.91	119
1819.32	107
1819.73	157
1820.14	111
1820.55	167
1820.96	51
1821.37	125
1821.78	115
1822.19	109
1822.6	147
1823.01	37
1823.42	151
1823.82	93
1824.23	137
1824.64	83
1825.05	137
1825.46	79
1825.87	133
1826.28	123
1826.69	89
1827.1	133
1827.51	63
1827.91	147
1828.32	111
1828.73	135
1829.14	105
1829.55	115
1829.96	111
1830.37	141
1830.78	111
1831.18	115
1831.59	131
1832	79
1832.41	135
1832.82	123
1833.23	115
1833.64	113
1834.05	103
1834.45	117
1834.86	131
1835.27	97
1835.68	121
1836.09	101
1836.49	97
1836.9	127
1837.31	127
1837.72	93
1838.13	127
1838.53	95
1838.94	135
1839.35	119
1839.76	73
1840.17	133
1840.58	79
1840.98	127
1841.39	91
1841.8	143
1842.21	87
1842.61	147
1843.02	93
1843.43	127
1843.84	127
1844.25	89
1844.65	165
1845.06	69
1845.47	143
1845.88	103
1846.28	128.845
1846.69	114.856
1847.1	122.899
1847.51	97.5333
1847.91	120.521
1848.32	121.692
1848.73	73.1032
1849.14	162.444
1849.54	72.8768
1849.95	143.559
1850.36	87.6238
1850.77	126.672
1851.17	131.881
1851.58	102.693
1851.99	113.272
1852.39	137.02
1852.8	119.588
1853.21	109.016
1853.62	133.047
1854.02	108.533
1854.43	134.83
1854.84	99.4577
1855.24	108.118
1855.65	126.518
1856.06	112.655
1856.46	93.4064
1856.87	131.25
1857.28	104.811
1857.68	136.567
1858.09	96.9039
1858.5	112.389
1858.9	126.697
1859.31	96.7325
1859.72	120.968
1860.12	135.731
1860.53	112.242
1860.94	102.616
1861.34	148.733
1861.75	96.9135
1862.15	143.48
1862.56	90.7551
1862.97	133.839
1863.37	132.707
1863.78	116.597
1864.19	114.895
1864.59	111.692
1865	109.653
1865.4	86.058
1865.81	134.158
1866.22	87.7038
1866.62	150.507
1867.03	91.1064
1867.43	135.63
1867.84	118.341
1868.25	118.798
1868.65	118.328
1869.06	119.261
1869.46	125.792
1869.87	97.5615
1870.28	130.195
1870.68	91.127
1871.09	149.69
1871.49	93.0659
1871.9	121.296
1872.3	126.384
1872.71	108.055
1873.12	121.745
1873.52	105.064
1873.93	118.55
1874.33	114.795
1874.74	122.383
1875.14	107.385
1875.55	129.298
1875.95	108.562
1876.36	119.405
1876.76	122.981
1877.17	107.705
1877.57	107.887
1877.98	115.823
1878.38	114.223
1878.79	121.607
1879.19	112.206
1879.6	89.417
1880	115.741
1880.41	105.253
1880.81	106.182
1881.22	107.911
1881.63	105.702
1882.03	106.9
1882.43	114.097
1882.84	127.01
1883.24	126.159
1883.65	134.66
1884.05	103.961
1884.46	149.067
1884.86	119.733
1885.27	126.179
1885.67	131.929
1886.08	114.27
1886.48	112.743
1886.89	100.623
1887.29	131.449
1887.69	108.308
1888.1	145.151
1888.5	66.8256
1888.85	151
1889.26	115
1889.67	113
1890.08	139
1890.49	93
1890.9	123
1891.3	93
1891.71	141
1892.12	95
1892.53	129
1892.94	65
1893.35	149
1893.76	129
1894.17	105
1894.58	129
1894.99	87
1895.4	137
1895.81	103
1896.22	133
1896.62	133
1897.03	127
1897.44	89
1897.85	153
1898.26	123
1898.67	123
1899.08	129
1899.49	105
1899.9	125
1900.3	111
1900.71	99
1901.12	147
1901.53	91
1901.94	73
1902.35	135
1902.75	121
1903.16	123
1903.57	117
1903.98	93
1904.39	141
1904.8	119
1905.21	85
1905.61	149
1906.02	93
1906.43	117
1906.84	115
1907.25	107
1907.66	143
1908.06	101
1908.47	93
1908.88	117
1909.29	145
1909.7	83
1910.1	155
1910.51	47
1910.92	141
1911.33	119
1911.73	121
1912.14	147
1912.55	55
1912.96	127
1913.37	109
1913.77	141
1914.18	73
1914.59	173
1915	89
1915.4	145
1915.81	105
1916.22	117
1916.63	133
1917.03	63
1917.44	151
1917.85	109
1918.26	135
1918.66	89
1919.07	157
1919.48	107
1919.89	145
1920.29	111
1920.7	129
1921.11	135
1921.51	73
1921.92	125
1922.33	105
1922.73	125
1923.14	117
1923.55	119
1923.96	95
1924.36	143
1924.77	103
1925.18	109
1925.58	141
1925.99	73
1926.4	161
1926.8	117
1927.21	111
1927.62	105
1928.02	103
1928.43	135
1928.84	123
1929.24	111
1929.65	113
1930.06	139
1930.46	109
1930.87	127
1931.28	121
1931.68	91
1932.09	121
1932.49	85
1932.9	131
1933.31	125
1933.71	81
1934.12	133
1934.53	95
1934.93	127
1935.34	115
1935.74	127
1936.15	95
1936.56	143
1936.96	87
1937.37	131
1937.78	153
1938.18	87
1938.59	153
1938.99	93
1939.4	149
1939.8	111
1940.21	139
1940.62	99
1941.02	113
1941.43	103
1941.83	135
1942.24	123
1942.64	79
1943.05	159
1943.45	73
1943.86	129
1944.27	85
1944.67	141
1945.08	113
1945.48	119
1945.89	77
1946.29	131
1946.7	113
1947.1	73
1947.51	165
1947.91	83
1948.32	159
1948.72	85
1949.13	123
1949.53	109
1949.94	99
1950.34	111
1950.75	141
1951.15	127
1951.56	97
1951.96	149
1952.37	89
1952.77	133
1953.18	103
1953.58	119
1953.99	157
1954.39	77
1954.8	123
1955.2	133
1955.61	105
1956.01	135
1956.42	97
1956.82	113
1957.23	117
1957.63	117
1958.03	107
1958.44	145
1958.84	87
1959.25	105
1959.65	139
1960.06	117
1960.46	149
1960.86	69
1961.27	139
1961.67	125
1962.08	105
1962.48	107
1962.89	147
1963.29	85
1963.69	127
1964.1	155
1964.5	109
1964.91	167
1965.31	67
1965.71	151
1966.12	103
1966.52	115
1966.93	113
1967.33	125
1967.73	87
1968.14	101
1968.54	117
1968.94	103
1969.35	153
1969.75	53
1970.15	159
1970.56	99
1970.96	111
1971.37	109
1971.77	107
1972.17	107
1972.58	135
1972.98	141
1973.38	101
1973.79	167
1974.19	61
1974.59	167
1974.99	125
1975.4	131
1975.8	127
1976.21	97
1976.61	121
1977.01	127
1977.41	129
1977.82	117
1978.22	121
1978.62	87
1979.03	131
1979.43	111
1979.83	115
1980.24	107
1980.64	85
1981.04	123
1981.44	129
1981.85	97
1982.25	141
1982.65	89
1983.05	111
1983.46	131
1983.86	135
1984.26	113
1984.66	125
1985.07	99
1985.47	141
1985.87	131
1986.27	93
1986.68	155
1987.08	83
1987.48	139
1987.88	129
1988.29	139
1988.69	115
1989.09	105
1989.49	127
1989.89	135
1990.3	137
1990.7	77
1991.1	171
1991.5	73
1991.9	139
1992.31	105
1992.71	137
1993.11	127
1993.51	81
1993.91	115
1994.32	109
1994.72	133
1995.12	83
1995.52	171
1995.92	75
1996.32	143
1996.73	103
1997.13	119
1997.53	147
1997.93	99
1998.33	129
1998.73	127
1999.14	137
1999.54	85
1999.94	157
2000.34	79
2000.74	153
2001.14	113
2001.54	127
2001.94	145
2002.35	97
2002.75	123
2003.15	129
2003.55	115
2003.95	111
2004.35	123
2004.75	91
2005.15	131
2005.55	95
2005.96	125
2006.36	135
2006.76	81
2007.16	113
2007.56	119
2007.96	115
2008.36	133
2008.76	95
2009.16	117
2009.56	135
2009.96	107
2010.36	125
2010.76	141
2011.16	99
2011.57	99
2011.97	123
2012.37	103
2012.77	155
2013.17	89
2013.57	141
2013.97	129
2014.37	117
2014.77	133
2015.17	109
2015.57	119
2015.97	105
2016.37	151
2016.77	85
2017.17	175
2017.57	71
2017.97	149
2018.37	107
2018.77	95
2019.17	135
2019.57	81
2019.97	129
2020.37	95
2020.77	127
2021.17	97
2021.57	149
2021.97	65
2022.37	159
2022.77	121
2023.17	131
2023.57	137
2023.97	85
2024.37	125
2024.77	87
2025.17	131
2025.57	95
2025.97	137
2026.37	55
2026.77	141
2027.16	125
2027.56	119
2027.96	143
2028.36	85
2028.76	133
2029.16	113
2029.56	131
2029.96	149
2030.36	119
2030.76	89
2031.16	131
2031.56	125
2031.96	111
2032.35	119
2032.75	107
2033.15	125
2033.55	149
2033.95	95
2034.35	161
2034.75	93
2035.15	101
2035.54	133
2035.94	129
2036.34	135
2036.74	105
2037.14	111
2037.54	145
2037.94	139
2038.34	75
2038.74	159
2039.13	83
2039.53	127
2039.93	133
2040.33	119
2040.73	145
2041.12	69
2041.52	113
2041.92	121
2042.32	141
2042.72	87
2043.12	157
2043.51	93
2043.91	151
2044.31	107
2044.71	121
2045.11	123
2045.51	69
2045.9	129
2046.3	109
2046.7	141
2047.1	83
2047.49	153
2047.89	91
2048.29	163
2048.69	87
2049.09	105
2049.48	159
2049.88	71
2050.28	133
2050.68	117
2051.07	133
2051.47	93
2051.87	133
2052.27	99
2052.67	137
2053.06	97
2053.46	101
2053.86	149
2054.26	89
2054.65	131
2055.05	135
2055.45	123
2055.85	133
2056.24	109
2056.64	119
2057.04	159
2057.43	93
2057.83	111
2058.23	117
2058.62	101
2059.02	103
2059.42	141
2059.82	93
2060.21	151
2060.61	87
2061.01	137
2061.4	129
2061.8	111
2062.2	119
2062.59	115
2062.99	107
2063.39	117
2063.79	141
2064.18	111
2064.58	159
2064.97	83
2065.37	163
2065.77	125
2066.16	109
2066.56	143
2066.96	89
2067.35	129
2067.75	95
2068.15	151
2068.54	95
2068.94	165
2069.34	65
2069.73	133
2070.13	121
2070.52	101
2070.92	129
2071.32	61
2071.71	143
2072.11	81
2072.51	159
2072.9	91
2073.3	129
2073.69	83
2074.09	143
2074.49	109
2074.88	99
2075.28	141
2075.67	79
2076.07	139
2076.47	107
2076.86	109
2077.26	127
2077.65	125
2078.05	73
2078.44	133
2078.84	119
2079.23	125
2079.63	137
2080.03	101
2080.42	143
2080.82	127
2081.21	133
2081.61	129
2082	105
2082.4	91
2082.79	139
2083.19	95
2083.58	107
2083.98	105
2084.37	97
2084.77	119
2085.16	117
2085.56	91
2085.95	163
2086.35	87
2086.74	109
2087.14	135
2087.53	115
2087.93	153
2088.32	105
2088.72	113
2089.11	125
2089.51	153
2089.9	91
2090.3	173
2090.69	87
2091.09	127
2091.48	133
2091.88	95
2092.27	141
2092.67	51
2093.06	153
2093.46	101
2093.85	135
2094.25	103
2094.64	145
2095.03	85
2095.43	127
2095.82	155
2096.22	95
2096.61	155
2097.01	51
2097.4	149
2097.79	107
2098.19	139
2098.58	87
2098.98	127
2099.37	87
2099.76	149
2100.16	121
2100.55	97
2100.95	151
2101.34	59
2101.73	161
2102.13	113
2102.52	141
2102.92	93
2103.31	133
2103.7	105
2104.1	149
2104.49	113
2104.88	109
2105.28	155
2105.67	77
2106.07	125
2106.46	111
2106.85	101
2107.25	121
2107.64	103
2108.03	123
2108.43	125
2108.82	97
2109.21	123
2109.61	109
2110	117
2110.39	123
2110.79	139
2111.18	103
2111.57	129
2111.97	93
2112.36	129
2112.75	149
2113.15	101
2113.54	169
2113.93	85
2114.32	143
2114.72	123
2115.11	133
2115.5	103
2115.9	133
2116.29	95
2116.68	141
2117.08	135
2117.47	95
2117.86	157
2118.25	81
2118.65	147
2119.04	91
2119.43	133
2119.82	97
2120.22	125
2120.61	93
2121	147
2121.39	111
2121.79	95
2122.18	153
2122.57	69
2122.96	139
2123.36	71
2123.75	141
2124.14	119
2124.53	103
2124.93	115
2125.32	145
2125.71	125
2126.1	89
2126.49	153
2126.89	87
2127.28	149
2127.67	87
2128.06	141
2128.45	135
2128.85	99
2129.24	95
2129.63	129
2130.02	129
2130.41	101
2130.81	133
2131.2	97
2131.59	129
2131.98	113
2132.37	143
2132.76	149
2133.16	93
2133.55	99
2133.94	129
2134.33	101
2134.72	149
2135.11	99
2135.5	121
2135.9	115
2136.29	95
2136.68	113
2137.07	153
2137.46	79
2137.85	125
2138.24	125
2138.63	123
2139.03	175
2139.42	63
2139.81	127
2140.2	105
2140.59	163
2140.98	87
2141.37	149
2141.76	103
2142.15	127
2142.55	137
2142.94	95
2143.33	161
2143.72	37
2144.11	157
2144.5	101
2144.89	147
2145.28	85
2145.67	123
2146.06	103
2146.45	111
2146.84	125
2147.23	95
2147.62	171
2148.02	61
2148.4	149
2148.8	101
2149.19	133
2149.58	119
2149.97	109
2150.36	125
2150.75	133
2151.14	117
2151.53	113
2151.92	133
2152.31	75
2152.7	141
2153.09	109
2153.48	123
2153.87	125
2154.26	101
2154.65	109
2155.04	147
2155.43	97
2155.82	123
2156.21	113
2156.6	109
2156.99	133
2157.38	117
2157.77	127
2158.16	109
2158.55	101
2158.94	129
2159.33	125
2159.72	93
2160.11	129
2160.5	105
2160.89	113
2161.28	113
2161.66	119
2162.05	113
2162.44	139
2162.83	79
2163.22	125
2163.61	123
2164	85
2164.39	167
2164.78	71
2165.17	143
2165.56	105
2165.95	143
2166.34	107
2166.73	125
2167.11	107
2167.5	117
2167.89	137
2168.28	75
2168.67	153
2169.06	53
2169.45	161
2169.84	103
2170.23	121
2170.62	115
2171	101
2171.39	109
2171.78	137
2172.17	143
2172.56	85
2172.95	149
2173.34	51
2173.73	143
2174.11	105
2174.5	149
2174.89	133
2175.28	103
2175.67	119
2176.06	133
2176.45	115
2176.83	93
2177.22	137
2177.61	93
2178	155
2178.39	87
2178.78	123
2179.16	129
2179.55	91
2179.94	111
2180.33	119
2180.72	111
2181.1	103
2181.49	111
2181.88	93
2182.27	131
2182.66	91
2183.04	105
2183.43	123
2183.82	91
2184.21	123
2184.6	105
2184.98	111
2185.37	155
2185.76	87
2186.15	123
2186.53	101
2186.92	99
2187.31	107
2187.7	111
2188.08	101
2188.47	97
2188.86	151
2189.25	105
2189.63	161
2190.02	69
2190.41	137
2190.8	105
2191.18	105
2191.57	143
2191.96	113
2192.34	131
2192.73	99
2193.12	137
2193.51	79
2193.89	145
2194.28	55
2194.67	145
2195.06	117
2195.44	137
2195.83	131
2196.22	91
2196.6	119
2196.99	113
2197.38	141
2197.76	97
2198.15	143
2198.54	55
2198.92	143
2199.31	95
2199.7	109
2200.08	125
2200.47	81
2200.86	125
2201.24	105
2201.63	131
2202.02	101
2202.4	121
2202.79	71
2203.18	117
2203.56	109
2203.95	111
2204.34	121
2204.72	75
2205.11	109
2205.49	119
2205.88	109
2206.27	149
2206.65	101
2207.04	103
2207.43	129
2207.81	121
2208.2	123
2208.58	101
2208.97	99
2209.36	109
2209.74	139
2210.13	93
2210.51	155
2210.9	67
2211.29	117
2211.67	133
2212.06	115
2212.44	141
2212.83	87
2213.21	117
2213.6	119
2213.98	141
2214.37	89
2214.76	167
2215.14	73
2215.53	141
2215.91	105.176
2216.3	134.859
2216.69	126.533
2217.07	80.7419
2217.46	117.799
2217.84	130.298
2218.23	132.529
2218.61	78.8666
2219	152.065
2219.38	67.5727
2219.77	145.39
2220.15	99.2127
2220.54	113.764
2220.92	127.373
2221.31	86.1186
2221.69	114.765
2222.08	101.119
2222.46	122.647
2222.85	67.8598
2223.23	121.116
2223.62	84.0835
2224	131.261
2224.39	120.488
2224.77	105.027
2225.16	123.657
2225.54	91.4701
2225.93	104.503
2226.31	107.151
2226.7	124.977
2227.08	105.782
2227.47	111.097
2227.85	97.6495
2228.23	119.791
2228.62	111.963
2229	123.752
2229.39	126.011
2229.77	111.931
2230.16	108.421
2230.54	125.611
2230.92	108.228
2231.31	119.434
2231.69	101.959
2232.08	113.886
2232.46	109.256
2232.85	107.31
2233.23	111.927
2233.62	118.469
2234	104.054
2234.38	104.803
2234.77	111.384
2235.15	114.784
2235.54	125.909
2235.92	93.4732
2236.3	126.105
2236.69	122.192
2237.07	121.201
2237.46	119.211
2237.84	104.499
2238.22	116.948
2238.61	105.433
2238.99	130.698
2239.37	104.728
2239.76	133.368
2240.14	104.269
2240.53	129.589
2240.91	100.92
2241.29	118.35
2241.68	120.21
2242.06	96.069
2242.44	129.336
2242.83	89.0702
2243.21	137.37
2243.59	103.495
2243.98	130.022
2244.36	97.8183
2244.74	121.54
2245.13	99.1553
2245.51	122.521
2245.89	116.715
2246.28	98.2462
2246.66	142.682
2247.04	90.101
2247.43	131.115
2247.81	90.0669
2248.19	126.403
2248.58	100.562
2248.96	123.184
2249.34	91.8745
2249.73	137.661
2250.11	107.484
2250.49	96.6301
2250.88	159.59
2251.26	80.1369
2251.64	145.099
2252.02	84.0443
2252.41	122.599
2252.79	128.686
2252.8	129
2253.18	91
2253.57	97
2253.96	123
2254.35	117
2254.74	133
2255.12	123
2255.51	93
2255.9	115
2256.29	99
2256.67	113
2257.06	139
2257.45	95
2257.84	113
2258.22	141
2258.61	121
2259	143
2259.39	95
2259.77	107
2260.16	111
2260.55	115
2260.94	97
2261.32	151
2261.71	85
2262.1	105
2262.48	131
2262.87	111
2263.26	143
2263.65	73
2264.03	121
2264.42	99
2264.81	137
2265.19	97
2265.58	143
2265.97	93
2266.35	105
2266.74	115
2267.13	93
2267.51	169
2267.9	57
2268.29	145
2268.67	97
2269.06	145
2269.45	95
2269.83	139
2270.22	101
2270.61	117
2270.99	131
2271.38	75
2271.77	161
2272.15	37
2272.54	157
2272.93	105
2273.31	137
2273.7	101
2274.08	165
2274.47	136.5
2274.86	129.3
2275.24	143
2275.63	101
2276.02	159
2276.4	61
2276.79	151
2277.17	97
2277.56	97
2277.95	113
2278.33	107
2278.72	91
2279.1	139
2279.49	111
2279.88	119
2280.26	129
2280.65	71
2281.03	147
2281.42	115
2281.8	115
2282.19	119
2282.58	101
2282.96	123
2283.35	151
2283.73	101
2284.12	131
2284.5	109
2284.89	109
2285.28	133
2285.66	125
2286.05	135
2286.43	131
2286.82	85
2287.2	143
2287.59	121
2287.97	87
2288.36	147
2288.74	87
2289.13	145
2289.51	117
2289.9	127
2290.28	91
2290.67	127
2291.05	99
2291.44	129
2291.82	129
2292.21	55
2292.59	147
2292.98	61
2293.36	121
2293.75	97
2294.13	151
2294.52	107
2294.9	115
2295.29	93
2295.67	121
2296.06	125
2296.44	65
2296.83	175
2297.21	71
2297.6	143
2297.98	117
2298.36	119
2298.75	129
2299.13	137
2299.52	103
2299.9	127
2300.29	133
2300.67	79
2301.06	157
2301.44	75
2301.82	163
2302.21	91
2302.59	141
2302.98	117
2303.36	113
2303.75	103
2304.13	113
2304.51	125
2304.9	87
2305.28	145
2305.67	83
2306.05	151
2306.44	107
2306.82	115
2307.2	123
2307.59	97
2307.97	109
2308.35	119
2308.74	93
2309.12	133
2309.51	109
2309.89	87
2310.27	133
2310.66	115
2311.04	117
2311.42	133
2311.81	103
2312.19	103
2312.57	125
2312.96	103
2313.34	145
2313.73	85
2314.11	123
2314.49	133
2314.88	111
2315.26	103
2315.64	149
2316.03	87
2316.41	111
2316.79	123
2317.18	93
2317.56	149
2317.94	71
2318.32	125
2318.71	113
2319.09	137
2319.47	105
2319.86	145
2320.24	107
2320.62	121
2321.01	129
2321.39	107
2321.77	153
2322.15	61
2322.54	151
2322.92	85
2323.3	141
2323.69	101
2324.07	137
2324.45	117
2324.83	109
2325.22	135
2325.6	95
2325.98	155
2326.36	41
2326.75	155
2327.13	119
2327.51	143
2327.89	121
2328.28	121
2328.66	113
2329.04	129
2329.42	127
2329.81	83
2330.19	159
2330.57	77
2330.95	155
2331.33	115
2331.72	125
2332.1	109
2332.48	119
2332.86	119
2333.24	135
2333.63	109
2334.01	105
2334.39	137
2334.77	69
2335.15	165
2335.54	103
2335.92	133
2336.3	131
2336.68	113
2337.06	127
2337.44	143
2337.83	95
2338.21	131
2338.59	119
2338.97	93
2339.35	137
2339.73	143
2340.12	109
2340.5	141
2340.88	103
2341.26	129
2341.64	119
2342.02	87
2342.41	137
2342.79	79
2343.17	127
2343.55	127
2343.93	135
2344.31	95
2344.69	111
2345.07	89
2345.45	115
2345.84	143
2346.22	99
2346.6	169
2346.98	85
2347.36	151
2347.74	123
2348.12	135
2348.5	111
2348.88	113
2349.26	111
2349.65	127
2350.03	139
2350.41	73
2350.79	151
2351.17	85
2351.55	135
2351.93	93
2352.31	141
2352.69	121
2353.07	111
2353.45	111
2353.83	121
2354.21	135
2354.59	83
2354.98	165
2355.35	77
2355.74	163
2356.12	85
2356.5	131
2356.88	139
2357.26	111
2357.64	111
2358.02	127
2358.4	119
2358.78	81
2359.16	163
2359.54	89
2359.92	165
2360.3	117
2360.68	125
2361.06	131
2361.44	103
2361.82	113
2362.2	117
2362.58	119
2362.96	107
2363.34	135
2363.72	105
2364.1	133
2364.48	99
2364.86	135
2365.24	135
2365.62	105
2366	97
2366.38	133
2366.75	93
2367.14	125
2367.51	105
2367.89	117
2368.27	129
2368.65	105
2369.03	117
2369.41	135
2369.79	89
2370.17	103
2370.55	153
2370.93	115
2371.31	141
2371.69	89
2372.07	127
2372.45	123
2372.83	121
2373.2	121
2373.58	133
2373.96	105
2374.34	109
2374.72	129
2375.1	93
2375.48	199
2375.86	73
2376.24	145
2376.61	107
2376.99	139
2377.37	115
2377.75	143
2378.13	107
2378.51	93
2378.89	114.333
2379.27	104.778
2379.65	118.778
2380.02	123.578
2380.4	163
2380.78	117
2381.16	123
2381.54	115
2381.92	103
2382.3	127
2382.67	115
2383.05	151
2383.43	93
2383.81	151
2384.19	53
2384.57	167
2384.94	137
2385.32	153
2385.7	107
2386.08	117
2386.46	111
2386.83	127
2387.21	133
2387.59	113
2387.97	145
2388.35	77
2388.73	155
2389.1	113
2389.48	113
2389.86	117
2390.24	89
2390.62	125
2390.99	131
2391.37	113
2391.75	121
2392.13	125
2392.5	95
2392.88	135
2393.26	141
2393.64	117
2394.01	115
2394.39	99
2394.77	123
2395.15	133
2395.52	93
2395.9	153
2396.28	87
2396.66	131
2397.04	127
2397.41	139
2397.79	97
2398.17	129
2398.54	103
2398.92	129
2399.3	147
2399.68	95
2400.05	169
2400.43	77
2400.81	145
2401.18	113
2401.56	155
2401.94	123
2402.32	125
2402.69	97
2403.07	135
2403.45	135
2403.82	91
2404.2	161
2404.58	75
2404.95	149
2405.33	89
2405.71	137
2406.09	111
2406.46	115
2406.84	83
2407.22	125
2407.59	127
2407.97	93
2408.34	171
2408.72	65
2409.1	165
2409.47	97
2409.85	135
2410.23	115
2410.6	137
2410.98	129
2411.36	143
2411.73	121
2412.11	119
2412.49	151
2412.86	81
2413.24	143
2413.61	83
2413.99	129
2414.37	147
2414.74	113
2415.12	103
2415.5	131
2415.87	115
2416.25	131
2416.62	109
2417	117
2417.37	127
2417.75	119
2418.13	131
2418.5	155
2418.88	103
2419.25	133
2419.63	151
2420.01	111
2420.38	145
2420.76	99
2421.13	121
2421.51	135
2421.88	143
2422.26	93
2422.64	147
2423.01	79
2423.39	125
2423.76	157
2424.14	121
2424.51	147
2424.89	59
2425.26	159
2425.64	119
2426.01	151
2426.39	89
2426.76	145
2427.14	99
2427.52	109
2427.89	159
2428.26	87
2428.64	175
2429.02	51
2429.39	155
2429.77	111
2430.14	141
2430.52	105
2430.89	139
2431.26	105
2431.64	119
2432.02	149
2432.39	107
2432.77	169
2433.14	67
2433.51	151
2433.89	141
2434.26	135
2434.64	129
2435.01	115
2435.39	113
2435.76	145
2436.14	135
2436.51	127
2436.89	157
2437.26	87
2437.63	173
2438.01	117
2438.38	131
2438.76	119
2439.13	107
2439.51	143
2439.88	161
2440.26	129
2440.63	119
2441	135
2441.38	95
2441.75	161
2442.13	127
2442.5	133
2442.87	153
2443.25	129
2443.62	137
2444	139
2444.37	143
2444.74	189
2445.12	139
2445.49	137
2445.87	147
2446.24	143
2446.61	115
2446.99	131
2447.36	131
2447.73	143
2448.11	135
2448.48	107
2448.86	161
2449.23	101
2449.6	145
2449.98	121
2450.35	161
2450.72	127
2451.1	135
2451.47	123
2451.84	135
2452.22	171
2452.59	85
2452.97	191
2453.34	103
2453.71	169
2454.08	121
2454.46	137
2454.83	117
2455.2	129
2455.58	135
2455.95	133
2456.32	149
2456.7	109
2457.07	173
2457.44	89
2457.82	171
2458.19	99
2458.56	155
2458.93	137
2459.31	129
2459.68	113
2460.05	131
2460.43	155
2460.8	109
2461.17	153
2461.54	81
2461.92	173
2462.29	93
2462.66	133
2463.03	137
2463.41	119
2463.78	137
2464.15	133
2464.52	145
2464.9	127
2465.27	149
2465.64	111
2466.01	143
2466.39	111
2466.76	135
2467.13	143
2467.5	125
2467.88	115
2468.25	141
2468.62	127
2468.99	145
2469.37	123
2469.74	129
2470.11	129
2470.48	101
2470.85	105
2471.22	161
2471.6	115
2471.97	117
2472.34	141
2472.71	123
2473.08	147
2473.46	63
2473.83	137
2474.2	113
2474.57	143
2474.94	115
2475.32	161
2475.69	95
2476.06	129
2476.43	145
2476.8	113
2477.17	163
2477.55	67
2477.92	157
2478.29	119
2478.66	145
2479.03	99
2479.4	155
2479.77	95
2480.15	141
2480.52	149
2480.89	93
2481.26	169
2481.63	65
2482	159
2482.37	115
2482.74	145
2483.12	105
2483.49	115
2483.86	107
2484.23	141
2484.6	147
2484.97	117
2485.34	163
2485.71	69
2486.08	157
2486.46	135
2486.83	145
2487.2	107
2487.57	109
2487.94	97
2488.31	139
2488.68	113
2489.05	113
2489.42	141
2489.79	79
2490.16	155
2490.53	129
2490.9	135
2491.27	115
2491.64	101
2492.01	123
2492.38	151
2492.76	123
2493.13	109
2493.5	121
2493.87	113
2494.24	125
2494.61	119
2494.98	111
2495.35	121
2495.72	105
2496.09	157
2496.46	133
2496.83	109
2497.2	149
2497.57	87
2497.94	143
2498.31	105
2498.68	135
2499.05	103
2499.42	131
2499.79	99
2500.16	137
2500.53	143
2500.9	95
2501.27	159
2501.64	89
2502.01	133
2502.38	105
2502.75	125
2503.12	111
2503.49	135
2503.86	109
2504.23	131
2504.6	131
2504.97	93
2505.34	155
2505.7	75
2506.07	155
2506.44	103
2506.81	139
2507.18	103
2507.55	143
2507.92	109
2508.29	137
2508.66	123
2509.03	101
2509.4	153
2509.77	79
2510.14	139
2510.5	75
2510.88	137
2511.24	107
2511.61	123
2511.98	91
2512.35	129
2512.72	123
2513.09	89
2513.46	157
2513.83	61
2514.2	139
2514.56	113
2514.93	127
2515.3	131
2515.67	101
2516.04	99
2516.41	141
2516.78	131
2517.15	117
2517.51	143
2517.88	109
2518.25	131
2518.62	109
2518.99	115
2519.36	139
2519.73	105
2520.09	97
2520.46	135
2520.83	123
2521.2	151
2521.57	109
2521.94	105
2522.3	125
2522.67	111
2523.04	113
2523.41	121
2523.78	89
2524.15	93
2524.51	135
2524.88	117
2525.25	145
2525.62	81
2525.98	135
2526.35	131
2526.72	145
2527.09	127
2527.46	145
2527.83	97
2528.19	145
2528.56	141
2528.93	129
2529.3	167
2529.66	77
2530.03	143
2530.4	107
2530.77	149
2531.13	101
2531.5	123
2531.87	109
2532.24	127
2532.61	133
2532.97	91
2533.34	161
2533.71	53
2534.07	147
2534.44	113
2534.81	137
2535.18	117
2535.54	115
2535.91	91
2536.28	125
2536.65	139
2537.01	91
2537.38	163
2537.75	49
2538.11	153
2538.48	115
2538.85	139
2539.22	117
2539.58	127
2539.95	101
2540.32	125
2540.68	141
2541.05	111
2541.42	133
2541.78	67
2542.15	161
2542.52	105
2542.89	117
2543.25	113
2543.62	101
2543.99	121
2544.35	117
2544.72	111
2545.08	117
2545.45	111
2545.82	91
2546.19	135
2546.55	135
2546.92	107
2547.28	125
2547.65	91
2548.02	135
2548.38	127
2548.75	107
2549.12	149
2549.48	97
2549.85	111
2550.21	117
2550.58	129
2550.95	101
2551.31	137
2551.68	97
2552.05	139
2552.41	149
2552.78	95
2553.14	175
2553.51	81
2553.88	137
2554.24	101
2554.61	147
2554.97	111
2555.34	117
2555.71	89
2556.07	147
2556.44	137
2556.8	79
2557.17	153
2557.53	59
2557.9	151
2558.27	79
2558.63	131
2559	109
2559.36	133
2559.73	105
2560.09	125
2560.46	129
2560.82	89
2561.19	173
2561.55	61
2561.92	157
2562.29	73
2562.65	139
2563.02	129
2563.38	117
2563.75	115
2564.11	135
2564.48	129
2564.84	97
2565.21	169
2565.57	75.3054
2565.94	141.946
2566.3	98.0027
2566.67	115.043
2567.03	132.553
2567.4	113.898
2567.76	112.292
2568.13	122.097
2568.49	117.061
2568.86	126.135
2569.22	132.057
2569.59	94.499
2569.95	123.903
2570.32	105.42
2570.68	110.429
2571.05	124.656
2571.41	119.231
2571.78	104.455
2572.14	121.353
2572.51	104.659
2572.87	132.733
2573.23	107.474
2573.6	104.334
2573.96	128.346
2574.33	108.735
2574.69	120.749
2575.06	146.15
2575.42	107.633
2575.79	112.721
2576.15	132.78
2576.51	115.36
2576.88	143.783
2577.24	94.1668
2577.61	131.127
2577.97	106.541
2578.34	141.871
2578.7	112.165
2579.06	150.003
2579.43	102.665
2579.79	119.578
2580.16	139.522
2580.52	115.469
2580.88	143.667
2581.25	87.7299
2581.61	142.55
2581.98	102.024
2582.34	148.462
2582.7	112.909
2583.07	127.261
2583.43	113.472
2583.8	122.053
2584.16	129.221
2584.52	108.913
2584.89	148.328
2585.25	97.4796
2585.61	146.701
2585.98	101.767
2586.34	122.801
2586.7	126.1
2587.07	114.912
2587.43	122.045
2587.8	103.235
2588.16	135.971
2588.52	123.504
2588.88	144.631
2589.25	93.8939
2589.61	145.874
2589.97	112.091
2590.34	152.312
2590.7	132.996
2591.06	121.964
2591.43	142.739
2591.79	90.6823
2592.15	145.699
2592.52	110.22
2592.88	142.314
2593.24	91.0831
2593.61	146.136
2593.97	99.3054
2594.33	128.315
2594.7	129.857
2595.06	105.704
2595.42	154.717
2595.78	63.8713
2596.15	141.84
2596.51	116.594
2596.87	146.54
2597.24	103.803
2597.6	123.999
2597.96	122.314
2598.32	138.425
2598.69	136.772
2599.05	123.587
2599.41	144.208
2599.78	89.2012
2600.14	136.202
2600.5	123.833
2600.86	128.822
2600.95	133
2601.31	127
2601.68	129
2602.05	121
2602.42	157
2602.78	115
2603.15	127
2603.52	159
2603.89	107
2604.25	153
2604.62	139
2604.99	111
2605.35	115
2605.72	123
2606.09	127
2606.46	145
2606.82	107
2607.19	143
2607.56	129
2607.92	97
2608.29	153
2608.66	127
2609.03	111
2609.39	131
2609.76	97
2610.13	149
2610.49	147
2610.86	97
2611.23	141
2611.59	117
2611.96	153
2612.33	125
2612.69	165
2613.06	95
2613.43	179
2613.79	109
2614.16	151
2614.53	153
2614.89	105
2615.26	161
2615.62	119
2615.99	141
2616.36	105
2616.72	145
2617.09	109
2617.46	175
2617.82	107
2618.19	151
2618.56	131
2618.92	125
2619.29	171
2619.65	109
2620.02	159
2620.39	111
2620.75	177
2621.12	123
2621.48	169
2621.85	101
2622.22	163
2622.58	151
2622.95	147
2623.31	191
2623.68	119
2624.04	167
2624.41	117
2624.78	161
2625.14	117
2625.51	167
2625.87	119
2626.24	159
2626.6	141
2626.97	169
2627.34	179
2627.7	117
2628.07	167
2628.43	149
2628.8	173
2629.16	177
2629.53	163
2629.9	125
2630.26	177
2630.63	163
2630.99	167
2631.36	197
2631.72	143
2632.09	155
2632.45	167
2632.82	149
2633.18	191
2633.55	135
2633.91	131
2634.28	177
2634.64	163
2635.01	181
2635.37	149
2635.74	153
2636.1	163
2636.47	213
2636.83	157
2637.2	203
2637.56	137
2637.93	185
2638.29	207
2638.66	175
2639.02	169
2639.39	157
2639.75	193
2640.12	191
2640.48	197
2640.84	173
2641.21	227
2641.57	155
2641.94	201
2642.3	207
2642.67	201
2643.03	215
2643.4	165
2643.76	191
2644.13	185
2644.49	233
2644.85	171
2645.22	255
2645.58	143
2645.95	257
2646.31	219
2646.68	205
2647.04	257
2647.4	173
2647.77	241
2648.13	207
2648.5	269
2648.86	181
2649.22	251
2649.59	201
2649.95	251
2650.32	233
2650.68	217
2651.04	245
2651.41	217
2651.77	269
2652.14	257
2652.5	261
2652.86	229
2653.23	301
2653.59	217
2653.95	295
2654.32	257
2654.68	271
2655.05	277
2655.41	245
2655.77	309
2656.14	271
2656.5	283
2656.86	285
2657.23	289
2657.59	247
2657.95	311
2658.32	297
2658.68	301
2659.04	345
2659.41	291
2659.77	349
2660.13	313
2660.5	309
2660.86	317
2661.22	295
2661.59	297
2661.95	331
2662.31	321
2662.68	329
2663.04	337
2663.4	325
2663.76	337
2664.13	365
2664.49	311
2664.85	371
2665.22	331
2665.58	359
2665.94	361
2666.3	317
2666.67	363
2667.03	345
2667.39	359
2667.76	345
2668.12	381
2668.48	357
2668.84	391
2669.21	347
2669.57	405
2669.93	373
2670.29	357
2670.66	373
2671.02	377
2671.38	401
2671.74	373
2672.11	367
2672.47	359
2672.83	403
2673.19	353
2673.56	429
2673.92	355
2674.28	353
2674.64	407
2675	321
2675.37	383
2675.73	355
2676.09	387
2676.45	333
2676.81	401
2677.18	313
2677.54	383
2677.9	345
2678.26	347
2678.62	379
2678.99	337
2679.35	375
2679.71	339
2680.07	419
2680.43	345
2680.8	395
2681.16	319
2681.52	357
2681.88	363
2682.24	341
2682.6	373
2682.97	311
2683.33	335
2683.69	303
2684.05	327
2684.41	327
2684.77	349
2685.13	271
2685.5	353
2685.86	309
2686.22	335
2686.58	343
2686.94	311
2687.3	319
2687.66	285
2688.03	301
2688.39	277
2688.75	309
2689.11	253
2689.47	313
2689.83	279
2690.19	295
2690.55	281
2690.91	229
2691.28	259
2691.64	283
2692	263
2692.36	307
2692.72	237
2693.08	265
2693.44	251
2693.8	257
2694.16	263
2694.52	245
2694.88	225
2695.24	245
2695.61	261
2695.97	189
2696.33	265
2696.69	179
2697.05	235
2697.41	211
2697.77	207
2698.13	249
2698.49	199
2698.85	231
2699.21	251
2699.57	251
2699.93	171
2700.29	251
2700.65	163
2701.01	245
2701.37	183
2701.73	199
2702.09	211
2702.45	175
2702.81	217
2703.18	189
2703.53	253
2703.89	153
2704.25	239
2704.62	141
2704.98	225
2705.33	141
2705.69	193
2706.06	189
2706.42	169
2706.78	187
2707.13	179
2707.49	215
2707.85	143
2708.22	223
2708.57	123
2708.93	217
2709.29	151
2709.65	175
2710.01	175
2710.37	137
2710.73	163
2711.09	183
2711.45	185
2711.81	147
2712.17	191
2712.53	139
2712.89	199
2713.25	139
2713.61	171
2713.97	197
2714.33	135
2714.69	175
2715.05	157
2715.41	151
2715.76	167
2716.12	149
2716.48	131
2716.84	175
2717.2	149
2717.56	149
2717.92	179
2718.28	115
2718.64	139
2719	175
2719.35	137
2719.71	181
2720.07	121
2720.43	149
2720.79	145
2721.15	143
2721.51	155
2721.87	141
2722.23	131
2722.59	151
2722.94	163
2723.3	145
2723.66	169
2724.02	115
2724.38	163
2724.74	137
2725.1	137
2725.46	133
2725.81	155
2726.17	129
2726.53	123
2726.89	177
2727.25	103
2727.61	191
2727.96	73
2728.32	171
2728.68	135
2729.04	141
2729.4	135
2729.75	149
2730.11	135
2730.47	113
2730.83	163
2731.19	115
2731.55	181
2731.91	69
2732.26	175
2732.62	143
2732.98	153
2733.34	129
2733.69	131
2734.05	147
2734.41	107
2734.77	161
2735.13	105
2735.48	161
2735.84	79
2736.2	169
2736.56	131
2736.91	131
2737.27	155
2737.63	115
2737.99	119
2738.35	135
2738.7	133
2739.06	111
2739.42	163
2739.78	73
2740.13	177
2740.49	133
2740.85	141
2741.21	153
2741.56	99
2741.92	147
2742.28	121
2742.64	143
2742.99	143
2743.35	145
2743.71	89
2744.06	157
2744.42	121
2744.78	121
2745.14	137
2745.49	99
2745.85	141
2746.21	129
2746.57	109
2746.92	153
2747.28	115
2747.64	109
2747.99	133
2748.35	143
2748.71	103
2749.06	135
2749.42	111
2749.78	141
2750.13	155
2750.49	109
2750.85	179
2751.2	71
2751.56	145
2751.92	139
2752.27	157
2752.63	121
2752.99	133
2753.34	115
2753.7	131
2754.06	155
2754.41	89
2754.77	181
2755.13	83
2755.48	153
2755.84	123
2756.2	147
2756.55	113
2756.91	123
2757.26	125
2757.62	139
2757.98	143
2758.33	75
2758.69	185
2759.04	85
2759.4	159
2759.76	95
2760.11	147
2760.47	135
2760.83	133
2761.18	113
2761.54	137
2761.89	137
2762.25	103
2762.61	137
2762.96	83
2763.32	151
2763.67	107
2764.03	133
2764.38	143
2764.74	111
2765.1	101
2765.45	117
2765.81	135
2766.16	111
2766.52	141
2766.88	97
2767.23	143
2767.59	99
2767.94	127
2768.3	151
2768.65	105
2769.01	107
2769.36	131
2769.72	113
2770.07	137
2770.43	89
2770.78	127
2771.14	125
2771.49	125
2771.85	111
2772.21	135
2772.56	91
2772.92	107
2773.27	141
2773.63	119
2773.98	153
2774.34	91
2774.69	137
2775.05	97
2775.4	135
2775.76	95
2776.11	157
2776.47	77
2776.82	127
2777.18	121
2777.53	123
2777.89	161
2778.24	67
2778.59	143
2778.95	119
2779.3	157
2779.66	81
2780.01	153
2780.37	79
2780.72	145
2781.08	151
2781.43	113
2781.79	165
2782.14	69
2782.49	175
2782.85	115
2783.2	145
2783.56	105
2783.91	135
2784.27	105
2784.62	133
2784.98	131
2785.33	93
2785.68	153
2786.04	75
2786.39	153
2786.75	109
2787.1	125
2787.46	101
2787.81	139
2788.16	105
2788.52	163
2788.87	121
2789.22	135
2789.58	157
2789.93	85
2790.29	149
2790.64	123
2790.99	127
2791.35	125
2791.7	89
2792.06	111
2792.41	133
2792.76	99
2793.12	115
2793.47	125
2793.82	101
2794.18	137
2794.53	109
2794.88	123
2795.24	141
2795.59	97
2795.95	121
2796.3	125
2796.65	109
2797.01	145
2797.36	121
2797.71	139
2798.07	111
2798.42	135
2798.77	105
2799.13	151
2799.48	91
2799.83	131
2800.19	129
2800.54	97
2800.89	155
2801.24	107
2801.6	137
2801.95	101
2802.3	147
2802.66	107
2803.01	141
2803.36	81
2803.72	127
2804.07	137
2804.42	97
2804.77	161
2805.13	87
2805.48	135
2805.83	103
2806.19	131
2806.54	99
2806.89	137
2807.24	81
2807.6	137
2807.95	127
2808.3	83
2808.65	149
2809.01	87
2809.36	145
2809.71	101
2810.06	151
2810.42	93
2810.77	153
2811.12	83
2811.47	161
2811.83	121
2812.18	91
2812.53	173
2812.88	69
2813.24	137
2813.59	87
2813.94	119
2814.29	113
2814.64	125
2815	95
2815.35	129
2815.7	137
2816.05	107
2816.4	153
2816.76	67
2817.11	141
2817.46	95
2817.81	139
2818.16	139
2818.52	105
2818.87	101
2819.22	141
2819.57	133
2819.92	113
2820.28	145
2820.63	103
2820.98	145
2821.33	105
2821.68	111
2822.03	157
2822.39	105
2822.74	105
2823.09	137
2823.44	113
2823.79	137
2824.14	121
2824.49	111
2824.85	123
2825.2	117
2825.55	105
2825.9	149
2826.25	93
2826.6	101
2826.95	125
2827.31	107
2827.66	141
2828.01	97
2828.36	115
2828.71	125
2829.06	145
2829.41	89
2829.76	167
2830.11	71
2830.46	113
2830.82	133
2831.17	127
2831.52	155
2831.87	79
2832.22	145
2832.57	115
2832.92	163
2833.27	81
2833.62	151
2833.97	79
2834.32	129
2834.68	113
2835.03	91
2835.38	143
2835.73	57
2836.08	147
2836.43	103
2836.78	139
2837.13	89
2837.48	153
2837.83	69
2838.18	139
2838.53	117
2838.88	93
2839.23	145
2839.58	77
2839.93	137
2840.28	115
2840.63	133
2840.98	99
2841.33	155
2841.68	101
2842.03	149
2842.38	115
2842.73	135
2843.08	151
2843.43	87
2843.78	141
2844.13	123
2844.48	133
2844.83	95
2845.18	117
2845.53	111
2845.88	139
2846.23	109
2846.58	103
2846.93	141
2847.28	95
2847.63	111
2847.98	123
2848.33	115
2848.68	143
2849.03	95
2849.38	137
2849.73	153
2850.08	95
2850.43	127
2850.78	133
2851.13	115
2851.48	109
2851.83	135
2852.18	117
2852.53	147
2852.88	75
2853.23	141
2853.57	129
2853.92	95
2854.27	135
2854.62	95
2854.97	125
2855.32	115
2855.67	137
2856.02	87
2856.37	159
2856.72	81
2857.07	135
2857.42	121
2857.76	93
2858.11	125
2858.46	95
2858.81	119
2859.16	103
2859.51	139
2859.86	93
2860.21	191
2860.56	77
2860.91	151
2861.25	99
2861.6	127
2861.95	147
2862.3	85
2862.65	147
2863	89
2863.35	143
2863.69	99
2864.04	145
2864.39	61
2864.74	155
2865.09	109
2865.44	115
2865.78	151
2866.13	87
2866.48	129
2866.83	97
2867.18	121
2867.53	109
2867.88	123
2868.22	83
2868.57	137
2868.92	117
2869.27	113
2869.62	135
2869.96	101
2870.31	125
2870.66	121
2871.01	127
2871.36	133
2871.7	129
2872.05	107
2872.4	139
2872.75	107
2873.1	133
2873.44	117
2873.79	111
2874.14	125
2874.49	135
2874.84	119
2875.18	147
2875.53	93
2875.88	97
2876.23	129
2876.57	117
2876.92	117
2877.27	103
2877.62	99
2877.97	115
2878.31	141
2878.66	99
2879.01	165
2879.36	63
2879.7	125
2880.05	117
2880.4	127
2880.74	119
2881.09	79
2881.44	131
2881.79	121
2882.13	159
2882.48	67
2882.83	167
2883.18	71
2883.52	143
2883.87	133
2884.22	117
2884.56	151
2884.91	85
2885.26	145
2885.61	103
2885.95	141
2886.3	61
2886.65	165
2886.99	75
2887.34	149
2887.69	111
2888.03	109
2888.38	123
2888.73	77
2889.07	121
2889.42	125
2889.77	143
2890.11	93
2890.46	153
2890.81	87
2891.15	157
2891.5	107
2891.85	131
2892.19	139
2892.54	83
2892.89	131
2893.23	115
2893.58	157
2893.93	81
2894.27	153
2894.62	99
2894.96	151
2895.31	89
2895.66	127
2896	143
2896.35	77.1
2896.7	146.341
2897.04	109.587
2897.39	125.28
2897.73	114.724
2898.08	111.148
2898.43	84.4688
2898.77	110.642
2899.12	96.9539
2899.46	105.379
2899.81	122.482
2900.16	98.7189
2900.5	123.719
2900.85	130.848
2901.19	113.492
2901.54	134.137
2901.88	102.429
2902.23	118.325
2902.58	131.639
2902.92	91.4563
2903.27	122.958
2903.61	114.597
2903.96	115.351
2904.31	116.142
2904.65	137.082
2905	108.203
2905.34	134.071
2905.69	80.7509
2906.03	118.583
2906.38	98.8193
2906.72	115.601
2907.07	112.471
2907.42	119.99
2907.76	107.207
2908.11	108.958
2908.45	145.113
2908.8	93.8342
2909.14	149.72
2909.49	66.71
2909.83	139.631
2910.18	103.293
2910.52	140.761
2910.87	104.231
2911.21	128.275
2911.56	112.155
2911.9	112.988
2912.25	130.338
2912.59	98.2703
2912.94	145.503
2913.28	75.6094
2913.63	145.405
2913.97	104.816
2914.32	136.585
2914.66	104.82
2915.01	111.386
2915.35	130.325
2915.7	122.895
2916.04	119.338
2916.39	104.354
2916.73	119.132
2917.08	89.7231
2917.42	136.775
2917.77	104.492
2918.11	132.811
2918.46	104.804
2918.8	112.808
2919.15	123.342
2919.49	113.048
2919.83	122.533
2920.18	108.512
2920.52	114.739
2920.87	111.544
2921.21	130.044
2921.56	112.949
2921.9	121.482
2922.24	104.084
2922.59	91.3801
2922.93	110.831
2923.28	113.378
2923.62	111.276
2923.97	100.729
2924.31	99.1659
2924.65	114
2925	121.734
2925.34	125.914
2925.69	123.697
2926.03	106.35
2926.38	110.782
2926.72	119.234
2927.06	106.541
2927.41	103.993
2927.75	119.381
2928.09	114.122
2928.44	130.721
2928.78	116.687
2929.13	108.897
2929.47	135.708
2929.81	108.674
2930.16	123.501
2930.5	128.409
2930.79	125
2931.14	95
2931.49	129
2931.84	83
2932.19	133
2932.54	115
2932.88	87
2933.23	149
2933.58	95
2933.93	137
2934.28	123
2934.63	135
2934.97	93
2935.32	149
2935.67	77
2936.02	133
2936.37	137
2936.71	83
2937.06	161
2937.41	73
2937.76	137
2938.11	77
2938.46	143
2938.8	103
2939.15	153
2939.5	75
2939.85	139
2940.19	127
2940.54	93
2940.89	149
2941.24	81
2941.59	121
2941.93	91
2942.28	129
2942.63	81
2942.98	137
2943.32	83
2943.67	147
2944.02	101
2944.37	105
2944.72	149
2945.06	75
2945.41	157
2945.76	85
2946.11	131
2946.45	105
2946.8	135
2947.15	75
2947.49	137
2947.84	119
2948.19	117
2948.54	143
2948.88	95
2949.23	143
2949.58	107
2949.93	135
2950.27	89
2950.62	133
2950.97	87
2951.31	141
2951.66	123
2952.01	125
2952.35	139
2952.7	89
2953.05	131
2953.4	111
2953.74	117
2954.09	129
2954.44	111
2954.78	93
2955.13	113
2955.48	121
2955.82	107
2956.17	141
2956.52	103
2956.86	129
2957.21	133
2957.56	113
2957.9	135
2958.25	95
2958.6	95
2958.94	143
2959.29	105
2959.64	109
2959.98	101
2960.33	109
2960.68	125
2961.02	117
2961.37	93
2961.72	135
2962.06	95
2962.41	117
2962.76	135
2963.1	119
2963.45	113
2963.79	87
2964.14	115
2964.49	109
2964.83	141
2965.18	89
2965.52	157
2965.87	77
2966.22	135
2966.56	113
2966.91	123
2967.25	145
2967.6	83
2967.95	151
2968.29	105
2968.64	151
2968.98	73
2969.33	165
2969.68	55
2970.02	139
2970.37	127
2970.71	121
2971.06	135
2971.4	65
2971.75	135
2972.1	111
2972.44	141
2972.79	69
2973.13	159
2973.48	81
2973.82	143
2974.17	127
2974.51	121
2974.86	119
2975.21	81
2975.55	131
2975.9	119
2976.24	129
2976.59	75
2976.93	143
2977.28	99
2977.62	155
2977.97	111
2978.31	129
2978.66	133
2979	95
2979.35	115
2979.69	111
2980.04	135
2980.38	83
2980.73	141
2981.07	83
2981.42	141
2981.76	83
2982.11	119
2982.45	163
2982.8	103
2983.14	119
2983.49	129
2983.83	115
2984.18	115
2984.52	111
2984.87	133
2985.21	135
2985.56	109
2985.9	121
2986.25	127
2986.59	87
2986.94	123
2987.28	121
2987.62	103
2987.97	157
2988.31	105
2988.66	131
2989	123
2989.35	113
2989.69	93
2990.03	121
2990.38	99
2990.72	89
2991.07	137
2991.41	95
2991.76	155
2992.1	59
2992.44	129
2992.79	111
2993.13	133
2993.48	111
2993.82	137
2994.17	95
2994.51	103
2994.85	113
2995.2	89
2995.54	161
2995.89	47
2996.23	157
2996.57	131
2996.92	139
2997.26	93
2997.6	145
2997.95	105
2998.29	115
2998.64	141
2998.98	79
2999.32	163
2999.67	31
