#Acq. time (s)=	30
#Accumulations=	1
#Range (cm-¹)=	1050...3000 (30 s) 
#Windows=	6
#Auto scanning=	Off
#Autofocus=	Off
#AutoExposure=	Off
#Spike filter=	Off
#Delay time (s)=	0
#Binning=	1
#Readout mode=	Signal
#DeNoise=	Off
#ICS correction=	Off
#Dark correction=	Off
#Inst. Process=	Off
#Detector Gain=	High Sensitivity
#Detector ADC=	45 kHz       
#Detector temperature (°C)=	-60.1
#Instrument=	LabRAM
#Detector=	Syncerity
#Objective=	x50LWD
#Grating=	1800
#Filter=	25%
#Laser (nm)=	532
#Hole=	100
#E-Cal_Neon=	0
#StageXY=	Marzhauser
#StageZ=	Marzhauser
#X (µm)=	0
#Y (µm)=	0
#Z (µm)=	-1678.85
#Spectral res.(cm-¹)=	1.9
#Full time(mm:ss)=	3:08
#AC=	Not calibrated
#Project=	
#Sample=	
#Site=	
#Title=	300K
#Remark=	
#Date=	19.02.2026 10:14
#Acquired=	19.02.2026 10:14:09
#Edit:Spike=	19.02.2026 10:15:52
#AxisType[0]=Intens
#AxisUnit[0]=Cnt
#AxisType[1]=Spectr
#AxisUnit[1]=1/cm
1050.13	143
1050.59	107
1051.05	143
1051.51	99
1051.97	133
1052.44	81
1052.9	173
1053.36	83
1053.82	153
1054.28	141
1054.74	127
1055.2	161
1055.67	91
1056.13	181
1056.59	97
1057.05	171
1057.51	115
1057.97	137
1058.43	77
1058.89	145
1059.36	137
1059.82	121
1060.28	169
1060.74	97
1061.2	159
1061.66	133
1062.12	153
1062.58	165
1063.04	93
1063.5	107
1063.96	131
1064.43	119
1064.89	145
1065.35	127
1065.81	117
1066.27	141
1066.73	133
1067.19	91
1067.65	159
1068.11	117
1068.57	113
1069.03	143
1069.49	123
1069.95	175
1070.41	85
1070.87	135
1071.33	117
1071.79	147
1072.25	125
1072.71	139
1073.17	109
1073.63	113
1074.09	147
1074.55	99
1075.01	173
1075.47	75
1075.93	143
1076.39	105
1076.85	153
1077.31	119
1077.77	145
1078.23	123
1078.69	137
1079.15	143
1079.61	119
1080.07	171
1080.53	71
1080.99	137
1081.45	127
1081.91	147
1082.37	131
1082.83	99
1083.29	137
1083.75	135
1084.21	129
1084.66	127
1085.12	135
1085.58	73
1086.04	151
1086.5	125
1086.96	125
1087.42	143
1087.88	113
1088.34	143
1088.8	121
1089.25	109
1089.71	145
1090.17	91
1090.63	119
1091.09	125
1091.55	133
1092.01	131
1092.47	115
1092.92	131
1093.38	129
1093.84	145
1094.3	91
1094.76	171
1095.22	81
1095.68	159
1096.13	125
1096.59	137
1097.05	143
1097.51	91
1097.97	145
1098.43	123
1098.88	157
1099.34	75
1099.8	151
1100.26	83
1100.72	161
1101.17	107
1101.63	117
1102.09	141
1102.55	89
1103.01	131
1103.46	117
1103.92	131
1104.38	93
1104.84	141
1105.29	127
1105.75	155
1106.21	115
1106.67	123
1107.12	145
1107.58	111
1108.04	123
1108.5	125
1108.95	129
1109.41	121
1109.87	103
1110.33	129
1110.78	149
1111.24	141
1111.7	127
1112.16	135
1112.61	103
1113.07	117
1113.53	153
1113.98	83
1114.44	157
1114.9	69
1115.35	139
1115.81	149
1116.27	107
1116.72	167
1117.18	95
1117.64	157
1118.1	107
1118.55	151
1119.01	101
1119.47	149
1119.92	81
1120.38	153
1120.84	155
1121.29	105
1121.75	191
1122.2	85
1122.66	159
1123.12	107
1123.57	151
1124.03	137
1124.49	133
1124.94	107
1125.4	127
1125.86	123
1126.31	101
1126.77	145
1127.22	85
1127.68	141
1128.14	107
1128.59	125
1129.05	149
1129.5	115
1129.96	109
1130.41	157
1130.87	123
1131.33	133
1131.78	115
1132.24	119
1132.69	129
1133.15	119
1133.61	133
1134.06	143
1134.52	111
1134.97	127
1135.43	145
1135.88	117
1136.34	153
1136.79	69
1137.25	141
1137.7	111
1138.16	127
1138.61	129
1139.07	139
1139.52	129
1139.98	95
1140.43	147
1140.89	111
1141.34	169
1141.8	61
1142.25	151
1142.71	117
1143.16	147
1143.62	131
1144.07	81
1144.53	99
1144.98	103
1145.44	147
1145.89	93
1146.35	155
1146.8	77
1147.26	153
1147.71	147
1148.16	135
1148.62	147
1149.07	79
1149.53	153
1149.98	117
1150.44	137
1150.89	129
1151.35	117
1151.8	119
1152.25	155
1152.71	141
1153.16	127
1153.62	135
1154.07	123
1154.52	133
1154.98	131
1155.43	115
1155.89	143
1156.34	99
1156.79	127
1157.25	139
1157.7	115
1158.16	133
1158.61	91
1159.06	121
1159.52	105
1159.97	153
1160.42	101
1160.88	161
1161.33	83
1161.78	131
1162.24	129
1162.69	121
1163.14	169
1163.6	87
1164.05	151
1164.5	113
1164.96	161
1165.41	99
1165.86	147
1166.32	89
1166.77	149
1167.22	145
1167.68	121
1168.13	145
1168.58	69
1169.04	163
1169.49	103
1169.94	137
1170.39	105
1170.85	117
1171.3	113
1171.75	139
1172.2	135
1172.66	119
1173.11	143
1173.56	75
1174.01	129
1174.47	125
1174.92	117
1175.37	131
1175.82	97
1176.28	117
1176.73	133
1177.18	105
1177.63	145
1178.09	93
1178.54	141
1178.99	125
1179.44	133
1179.89	113
1180.35	105
1180.8	117
1181.25	129
1181.7	135
1182.15	79
1182.61	157
1183.06	77
1183.51	137
1183.96	113
1184.41	139
1184.87	121
1185.32	87
1185.77	151
1186.22	139
1186.67	147
1187.12	91
1187.58	163
1188.03	105
1188.48	161
1188.93	103
1189.38	123
1189.83	141
1190.28	103
1190.73	139
1191.19	129
1191.64	129
1192.09	101
1192.54	139
1192.99	97
1193.44	163
1193.89	97
1194.34	129
1194.8	143
1195.25	107
1195.7	113
1196.15	139
1196.6	105
1197.05	131
1197.5	105
1197.95	135
1198.4	143
1198.85	119
1199.3	125
1199.75	113
1200.2	109
1200.66	121
1201.11	143
1201.56	117
1202.01	163
1202.46	81
1202.91	135
1203.36	117
1203.81	105
1204.26	139
1204.71	91
1205.16	135
1205.61	105
1206.06	155
1206.51	95
1206.96	175
1207.41	103
1207.86	159
1208.31	133
1208.76	115
1209.21	151
1209.66	83
1210.11	149
1210.56	83
1211.01	131
1211.46	131
1211.91	131
1212.36	101
1212.81	141
1213.26	129
1213.71	131
1214.16	155
1214.61	89
1215.05	141
1215.51	111
1215.95	123
1216.4	147
1216.85	111
1217.3	93
1217.75	143
1218.2	133
1218.65	139
1219.1	91
1219.55	121
1220	127
1220.45	133
1220.9	123
1221.34	147
1221.79	97
1222.24	121
1222.69	143
1223.14	113
1223.59	149
1224.04	83
1224.49	147
1224.94	117
1225.38	145
1225.83	103
1226.28	143
1226.73	85
1227.18	107
1227.63	135
1228.07	97
1228.52	171
1228.97	53
1229.42	139
1229.87	107
1230.32	141
1230.76	121
1231.21	109
1231.66	121
1232.11	111
1232.56	145
1233.01	93
1233.45	161
1233.9	51
1234.35	155
1234.8	123
1235.25	143
1235.69	149
1236.14	103
1236.59	151
1237.04	121
1237.49	127
1237.93	125
1238.38	137
1238.83	97
1239.28	141
1239.72	139
1240.17	101
1240.62	133
1241.07	93
1241.51	121
1241.96	137
1242.41	121
1242.86	155
1243.3	101
1243.75	117
1244.2	145
1244.65	121
1245.09	127
1245.54	89
1245.99	107
1246.44	123
1246.88	127
1247.33	93
1247.78	161
1248.22	95
1248.67	125
1249.12	133
1249.56	121
1250.01	171
1250.46	87
1250.9	151
1251.35	115
1251.8	147
1252.24	95
1252.69	163
1253.14	85
1253.58	139
1254.03	119
1254.48	107
1254.92	147
1255.37	75
1255.82	161
1256.26	115
1256.71	147
1257.15	107
1257.6	109
1258.05	101
1258.49	149
1258.94	125
1259.39	117
1259.83	159
1260.28	99
1260.72	163
1261.17	137
1261.62	149
1262.06	131
1262.51	93
1262.95	123
1263.4	137
1263.85	91
1264.29	141
1264.74	119
1265.18	101
1265.63	123
1266.07	135
1266.52	123
1266.97	131
1267.41	91
1267.86	141
1268.3	157
1268.75	109
1269.19	159
1269.64	89
1270.08	147
1270.53	115
1270.97	135
1271.42	119
1271.86	99
1272.31	121
1272.76	133
1273.2	141
1273.64	79
1274.09	183
1274.53	97
1274.98	157
1275.42	119
1275.87	137
1276.31	131
1276.76	119
1277.2	149
1277.65	129
1278.09	151
1278.54	99
1278.98	147
1279.43	101
1279.87	161
1280.32	97
1280.76	133
1281.21	123
1281.65	105
1282.09	133
1282.54	137
1282.98	137
1283.43	123
1283.87	129
1284.32	121
1284.76	137
1285.21	125
1285.65	127
1286.09	147
1286.54	109
1286.98	129
1287.42	145
1287.87	99
1288.31	175
1288.76	101
1289.2	121
1289.64	123
1290.09	93
1290.53	147
1290.98	123
1291.42	141
1291.86	115
1292.31	175
1292.75	103
1293.19	167
1293.64	93
1294.08	165
1294.53	131
1294.97	97
1295.41	149
1295.85	101
1296.3	147
1296.74	103
1297.19	135
1297.63	111
1298.07	129
1298.51	103
1298.96	153
1299.4	125
1299.84	109
1300.29	169
1300.73	107
1301.17	161
1301.62	101
1302.06	143
1302.5	141
1302.94	131
1303.39	79
1303.83	153
1304.27	119
1304.72	135
1305.16	143
1305.6	125
1306.04	141
1306.49	131
1306.93	123
1307.37	145
1307.81	113
1308.26	119
1308.7	153
1309.14	121
1309.58	159
1310.03	105
1310.47	137
1310.91	131
1311.35	143
1311.8	131
1312.24	159
1312.68	105
1313.12	115
1313.56	147
1314	117
1314.45	173
1314.89	51
1315.33	161
1315.77	129
1316.22	145
1316.66	119
1317.1	143
1317.54	133
1317.98	111
1318.43	155
1318.87	101
1319.31	173
1319.75	67
1320.19	153
1320.63	137
1321.07	151
1321.51	145
1321.96	119
1322.4	123
1322.84	125
1323.28	139
1323.72	115
1324.16	135
1324.6	113
1325.05	157
1325.49	125
1325.93	141
1326.37	153
1326.81	137
1327.25	149
1327.69	175
1328.13	129
1328.57	173
1329.02	123
1329.45	117
1329.9	165
1330.34	135
1330.78	151
1331.22	129
1331.66	121
1332.1	133
1332.54	173
1332.98	129
1333.42	181
1333.86	129
1334.3	159
1334.74	155
1335.18	147
1335.62	163
1336.07	107
1336.5	157
1336.95	163
1337.39	145
1337.83	107
1338.27	193
1338.71	103
1339.15	173
1339.59	157
1340.03	137
1340.47	207
1340.91	85
1341.35	183
1341.79	139
1342.23	179
1342.67	155
1343.11	163
1343.55	157
1343.99	191
1344.43	171
1344.86	117
1345.31	209
1345.74	109
1346.18	177
1346.62	139
1347.06	165
1347.5	161
1347.94	137
1348.38	173
1348.82	203
1349.26	155
1349.7	169
1350.14	159
1350.58	137
1351.02	173
1351.46	163
1351.9	145
1352.33	151
1352.77	129
1353.21	173
1353.65	175
1354.09	143
1354.53	181
1354.97	117
1355.41	145
1355.85	163
1356.29	163
1356.72	149
1357.16	129
1357.6	153
1358.04	143
1358.48	185
1358.92	105
1359.36	175
1359.79	115
1360.23	169
1360.67	113
1361.11	143
1361.55	145
1361.99	105
1362.43	147
1362.87	153
1363.3	141
1363.74	107
1364.18	181
1364.62	101
1365.06	171
1365.49	135
1365.93	145
1366.37	161
1366.81	103
1367.25	143
1367.68	139
1368.12	149
1368.56	101
1369	139
1369.44	131
1369.87	157
1370.31	141
1370.75	129
1371.19	157
1371.62	101
1372.06	141
1372.5	143
1372.94	121
1373.37	149
1373.81	101
1374.25	147
1374.69	131
1375.12	113
1375.56	127
1376	121
1376.44	141
1376.87	113
1377.31	155
1377.75	89
1378.19	161
1378.62	93
1379.06	169
1379.5	139
1379.93	103
1380.37	151
1380.81	105
1381.25	149
1381.68	97
1382.12	157
1382.56	117
1382.99	141
1383.43	93
1383.87	141
1384.3	125
1384.74	113
1385.18	153
1385.61	109
1386.05	147
1386.49	97
1386.92	131
1387.36	131
1387.8	117
1388.23	101
1388.67	135
1389.1	135
1389.54	103
1389.98	143
1390.41	109
1390.85	157
1391.29	115
1391.72	139
1392.16	145
1392.59	123
1393.03	123
1393.47	157
1393.9	127
1394.34	159
1394.77	105
1395.21	133
1395.65	141
1396.08	131
1396.52	123
1396.95	165
1397.39	99
1397.82	117
1398.26	129
1398.7	75
1399.13	169
1399.57	55
1400	159
1400.44	107
1400.87	157
1401.31	127
1401.74	123
1402.18	135
1402.62	101
1403.05	137
1403.49	97
1403.92	181
1404.36	63
1404.79	145
1405.23	113
1405.66	143
1406.1	143
1406.53	81
1406.97	123
1407.4	117
1407.84	137
1408.27	119
1408.71	133
1409.14	95
1409.58	139
1410.01	129
1410.45	129
1410.88	135
1411.31	107
1411.75	137
1412.18	135
1412.62	107
1413.05	155
1413.49	117
1413.92	137
1414.36	171
1414.79	115
1415.23	149
1415.66	107
1416.1	97
1416.53	107
1416.96	133
1417.4	97
1417.83	169
1418.27	91
1418.7	121
1419.13	135
1419.57	109
1420	143
1420.44	79
1420.87	129
1421.3	125
1421.74	161
1422.17	89
1422.61	145
1423.04	89
1423.47	153
1423.91	125
1424.34	119
1424.77	145
1425.21	61
1425.64	159
1426.07	97
1426.51	165
1426.94	89
1427.38	133
1427.81	89
1428.24	139
1428.68	115
1429.11	119
1429.54	151
1429.98	81
1430.41	161
1430.84	119
1431.28	133
1431.71	117
1432.14	95
1432.57	113
1433.01	141
1433.44	143
1433.87	149
1434.31	143
1434.74	91
1435.17	139
1435.61	145
1436.04	117
1436.47	129
1436.9	91
1437.34	119
1437.77	131
1438.2	115
1438.63	151
1439.07	73
1439.5	131
1439.93	137
1440.36	141
1440.8	119
1441.23	101
1441.66	99
1442.09	129
1442.53	153
1442.96	71
1443.39	159
1443.82	83
1444.26	135
1444.69	119
1445.12	143
1445.55	123
1445.98	113
1446.42	119
1446.85	127
1447.28	151
1447.71	93
1448.14	157
1448.57	83
1449.01	167
1449.44	115
1449.87	135
1450.3	143
1450.73	101
1451.17	123
1451.6	117
1452.03	127
1452.46	101
1452.89	131
1453.32	105
1453.76	147
1454.19	115
1454.62	121
1455.05	139
1455.48	123
1455.91	143
1456.34	119
1456.77	99
1457.21	123
1457.64	103
1458.07	117
1458.5	127.029
1458.93	95.1721
1459.36	136.899
1459.79	117.122
1460.22	124.403
1460.65	100.605
1461.08	146.179
1461.52	86.1579
1461.95	154.313
1462.38	85.1528
1462.81	157.318
1463.24	131.055
1463.67	97.1935
1464.1	144.595
1464.53	104.75
1464.96	128.063
1465.39	99.7088
1465.82	132.494
1466.25	105.637
1466.68	139.602
1467.11	91.4751
1467.54	142.721
1467.98	123.71
1468.41	108.978
1468.84	158.516
1469.27	94.3445
1469.7	128.622
1470.13	118.634
1470.56	135.882
1470.99	116.889
1471.42	126.697
1471.85	103.151
1472.28	133.417
1472.71	122.555
1473.14	103.854
1473.57	140.207
1474	92.8515
1474.43	121.461
1474.86	122.343
1475.29	127.01
1475.72	129.982
1476.15	115.539
1476.58	108.426
1477.01	121.743
1477.44	133.447
1477.87	113.426
1478.3	128.844
1478.72	124.938
1479.15	124.905
1479.58	127.05
1480.01	103.443
1480.44	144.712
1480.87	103.608
1481.3	122.539
1481.73	126.109
1482.16	126.07
1482.59	118.446
1483.02	104.751
1483.45	138.941
1483.88	121.582
1484.31	142.418
1484.74	95.3093
1485.17	122.675
1485.59	120.081
1486.02	106.54
1486.45	129.829
1486.88	96.1959
1487.31	115.493
1487.74	101.91
1488.17	141.185
1488.6	121.48
1489.02	108.873
1489.45	117.415
1489.88	126.265
1490.31	136.629
1490.74	126.909
1491.17	147.304
1491.6	109.01
1492.03	111.638
1492.45	121.352
1492.88	127.83
1493.31	131.592
1493.74	103.916
1494.17	109.39
1494.6	120.47
1495.02	143.404
1495.45	126.618
1495.88	120.702
1496.31	118.097
1496.74	115.987
1497.17	137.612
1497.59	131.472
1498.02	139.834
1498.45	110.345
1498.88	99.6888
1499.31	121.683
1499.73	124.884
1500.16	128.489
1500.59	119.289
1501.02	118.851
1501.45	113.45
1501.87	122.407
1502.13	113
1502.56	113
1502.99	141
1503.43	79
1503.86	141
1504.29	127
1504.72	133
1505.16	123
1505.59	125
1506.02	113
1506.46	145
1506.89	117
1507.32	129
1507.75	141
1508.19	101
1508.62	153
1509.05	133
1509.49	115
1509.92	117
1510.35	103
1510.78	137
1511.21	147
1511.65	101
1512.08	135
1512.51	105
1512.94	119
1513.38	111
1513.81	129
1514.24	91
1514.67	133
1515.11	97
1515.54	123
1515.97	127
1516.4	75
1516.83	159
1517.27	75
1517.7	151
1518.13	95
1518.56	139
1518.99	111
1519.42	149
1519.86	113
1520.29	119
1520.72	137
1521.15	71
1521.58	159
1522.01	85
1522.45	145
1522.88	97
1523.31	131
1523.74	143
1524.17	109
1524.6	97
1525.04	145
1525.47	129
1525.9	107
1526.33	141
1526.76	89
1527.19	159
1527.62	99
1528.05	99
1528.49	131
1528.92	109
1529.35	119
1529.78	141
1530.21	115
1530.64	129
1531.07	115
1531.5	105
1531.93	135
1532.37	115
1532.8	117
1533.23	147
1533.66	111
1534.09	125
1534.52	143
1534.95	127
1535.38	175
1535.81	105
1536.24	151
1536.67	113
1537.1	141
1537.53	119
1537.96	147
1538.39	99
1538.82	117
1539.26	155
1539.68	91
1540.12	169
1540.55	73
1540.98	151
1541.41	127
1541.84	137
1542.27	131
1542.7	133
1543.13	113
1543.56	105
1543.99	163
1544.42	107
1544.85	161
1545.28	75
1545.71	161
1546.14	131
1546.57	125
1547	157
1547.43	111
1547.86	133
1548.29	133
1548.72	151
1549.14	115
1549.57	135
1550.01	95
1550.43	159
1550.86	125
1551.29	133
1551.72	149
1552.15	109
1552.58	127
1553.01	143
1553.44	127
1553.87	157
1554.3	141
1554.73	99
1555.16	169
1555.59	141
1556.01	131
1556.44	141
1556.87	133
1557.3	139
1557.73	143
1558.16	119
1558.59	155
1559.02	85
1559.45	135
1559.88	151
1560.3	149
1560.73	147
1561.16	111
1561.59	131
1562.02	129
1562.45	173
1562.88	103
1563.31	189
1563.73	89
1564.16	161
1564.59	143
1565.02	113
1565.45	183
1565.88	97
1566.3	185
1566.73	123
1567.16	179
1567.59	107
1568.02	173
1568.45	115
1568.88	169
1569.3	169
1569.73	149
1570.16	193
1570.59	107
1571.01	191
1571.44	147
1571.87	173
1572.3	133
1572.73	175
1573.15	149
1573.58	185
1574.01	161
1574.44	177
1574.87	191
1575.29	143
1575.72	209
1576.15	171
1576.58	189
1577	175
1577.43	169
1577.86	187
1578.29	221
1578.71	185
1579.14	205
1579.57	219
1580	203
1580.42	255
1580.85	217
1581.28	213
1581.71	237
1582.13	201
1582.56	225
1582.99	233
1583.41	257
1583.84	261
1584.27	233
1584.7	265
1585.12	263
1585.55	291
1585.98	271
1586.4	303
1586.83	255
1587.26	325
1587.68	363
1588.11	291
1588.54	421
1588.96	311
1589.39	457
1589.82	453
1590.24	489
1590.67	497
1591.1	491
1591.52	571
1591.95	637
1592.38	683
1592.8	651
1593.23	739
1593.65	667
1594.08	789
1594.51	791
1594.93	769
1595.36	739
1595.79	727
1596.21	715
1596.64	745
1597.06	697
1597.49	659
1597.92	637
1598.34	557
1598.77	561
1599.19	497
1599.62	499
1600.05	475
1600.47	407
1600.9	363
1601.32	383
1601.75	353
1602.18	295
1602.6	293
1603.03	253
1603.45	309
1603.88	259
1604.3	247
1604.73	241
1605.15	209
1605.58	207
1606	235
1606.43	189
1606.86	205
1607.28	151
1607.71	215
1608.13	173
1608.56	181
1608.98	161
1609.41	165
1609.83	159
1610.26	137
1610.68	191
1611.11	153
1611.53	213
1611.96	65
1612.38	175
1612.81	149
1613.23	153
1613.66	173
1614.08	135
1614.51	143
1614.93	121
1615.36	171
1615.78	135
1616.21	193
1616.63	93
1617.06	165
1617.48	149
1617.9	147
1618.33	169
1618.75	125
1619.18	157
1619.6	147
1620.03	163
1620.45	127
1620.88	149
1621.3	73
1621.72	187
1622.15	135
1622.57	151
1623	145
1623.42	131
1623.85	175
1624.27	127
1624.69	141
1625.12	131
1625.54	145
1625.97	101
1626.39	165
1626.81	141
1627.24	157
1627.66	139
1628.08	127
1628.51	141
1628.93	157
1629.36	119
1629.78	163
1630.2	105
1630.63	143
1631.05	149
1631.47	133
1631.9	155
1632.32	103
1632.74	113
1633.17	139
1633.59	175
1634.01	107
1634.44	177
1634.86	87
1635.28	141
1635.71	135
1636.13	115
1636.55	159
1636.98	73
1637.4	151
1637.82	115
1638.25	147
1638.67	91
1639.09	155
1639.51	103
1639.94	135
1640.36	137
1640.78	107
1641.21	155
1641.63	59
1642.05	153
1642.47	123
1642.9	139
1643.32	117
1643.74	139
1644.17	111
1644.59	171
1645.01	123
1645.43	127
1645.86	137
1646.28	69
1646.7	151
1647.12	127
1647.55	125
1647.97	115
1648.39	101
1648.81	107
1649.23	151
1649.66	121
1650.08	125
1650.5	125
1650.92	91
1651.35	147
1651.77	135
1652.19	119
1652.61	129
1653.03	103
1653.45	129
1653.88	137
1654.3	101
1654.72	139
1655.14	101
1655.56	123
1655.99	119
1656.41	151
1656.83	143
1657.25	113
1657.67	107
1658.09	147
1658.52	147
1658.94	85
1659.36	161
1659.78	93
1660.2	143
1660.62	103
1661.04	163
1661.47	127
1661.89	105
1662.31	101
1662.73	105
1663.15	153
1663.57	79
1663.99	147
1664.41	83
1664.83	153
1665.26	107
1665.68	119
1666.1	139
1666.52	91
1666.94	131
1667.36	137
1667.78	151
1668.2	93
1668.62	143
1669.04	95
1669.46	151
1669.89	97
1670.31	123
1670.73	145
1671.15	109
1671.57	125
1671.99	121
1672.41	137
1672.83	99
1673.25	145
1673.67	85
1674.09	153
1674.51	95
1674.93	111
1675.35	149
1675.77	99
1676.19	125
1676.61	125
1677.03	113
1677.45	133
1677.87	89
1678.29	127
1678.71	139
1679.13	109
1679.55	115
1679.97	123
1680.39	95
1680.81	113
1681.23	157
1681.65	75
1682.07	147
1682.49	75
1682.91	121
1683.33	119
1683.75	99
1684.17	155
1684.59	91
1685.01	127
1685.43	93
1685.85	171
1686.27	93
1686.69	169
1687.11	91
1687.53	143
1687.95	123
1688.37	95
1688.78	143
1689.2	91
1689.62	139
1690.04	103
1690.46	147
1690.88	103
1691.3	139
1691.72	71
1692.14	139
1692.56	111
1692.98	121
1693.39	131
1693.81	81
1694.23	129
1694.65	93
1695.07	139
1695.49	121
1695.91	133
1696.33	93
1696.75	143
1697.16	105
1697.58	127
1698	145
1698.42	97
1698.84	123
1699.26	121
1699.68	109
1700.09	149
1700.51	95
1700.93	115
1701.35	141
1701.77	119
1702.19	127
1702.6	105
1703.02	135
1703.44	105
1703.86	139
1704.28	79
1704.69	167
1705.11	93
1705.53	121
1705.95	139
1706.37	99
1706.78	165
1707.2	61
1707.62	141
1708.04	123
1708.46	155
1708.87	109
1709.29	141
1709.71	99
1710.13	107
1710.54	139
1710.96	113
1711.38	169
1711.8	53
1712.22	151
1712.63	125
1713.05	139
1713.47	95
1713.89	131
1714.3	119
1714.72	153
1715.14	127
1715.56	101
1715.97	157
1716.39	51
1716.81	143
1717.22	103
1717.64	103
1718.06	107
1718.48	117
1718.89	103
1719.31	127
1719.73	105
1720.14	105
1720.56	125
1720.98	95
1721.39	159
1721.81	115
1722.23	109
1722.64	121
1723.06	87
1723.48	147
1723.89	135
1724.31	99
1724.73	147
1725.14	99
1725.56	135
1725.98	121
1726.39	145
1726.81	117
1727.23	127
1727.64	99
1728.06	119
1728.48	143
1728.89	79
1729.31	161
1729.72	63
1730.14	137
1730.56	115
1730.97	129
1731.39	121
1731.8	87
1732.22	113
1732.64	123
1733.05	135
1733.47	59
1733.89	173
1734.3	71
1734.72	169
1735.13	101
1735.55	125
1735.96	127
1736.38	85
1736.8	145
1737.21	113
1737.63	137
1738.04	67
1738.46	139
1738.87	81
1739.29	139
1739.71	101
1740.12	119
1740.54	131
1740.95	87
1741.37	135
1741.78	121
1742.2	147
1742.61	113
1743.03	111
1743.44	105
1743.86	147
1744.27	111
1744.69	117
1745.1	145
1745.52	95
1745.93	125
1746.35	127
1746.77	105
1747.18	129
1747.59	107
1748.01	137
1748.42	119
1748.84	111
1749.25	123
1749.67	95
1750.08	113
1750.5	105
1750.91	137
1751.33	81
1751.74	157
1752.16	91
1752.57	139
1752.99	109
1753.4	89
1753.81	149
1754.23	85
1754.64	135
1755.06	95
1755.47	163
1755.89	99
1756.3	145
1756.72	77
1757.13	123
1757.54	121
1757.96	85
1758.37	163
1758.78	89
1759.2	133
1759.61	95
1760.03	125
1760.44	119
1760.86	125
1761.27	85
1761.68	157
1762.1	109
1762.51	101
1762.92	143
1763.34	87
1763.75	153
1764.17	119
1764.58	125
1764.99	121
1765.41	113
1765.82	97
1766.23	131
1766.65	109
1767.06	131
1767.47	129
1767.89	87
1768.3	125
1768.71	97
1769.13	105
1769.54	143
1769.95	89
1770.37	95
1770.78	125
1771.19	117
1771.61	143
1772.02	89
1772.43	107
1772.85	109
1773.26	131
1773.67	81
1774.09	141
1774.5	79
1774.91	95
1775.32	135
1775.74	111
1776.15	149
1776.56	59
1776.97	147
1777.39	115
1777.8	149
1778.21	93
1778.62	125
1779.04	99
1779.45	129
1779.86	139
1780.28	81
1780.69	151
1781.1	55
1781.51	131
1781.92	119
1782.34	123
1782.75	113
1783.16	113
1783.57	89
1783.99	117
1784.4	107
1784.81	111
1785.22	145
1785.63	65
1786.05	141
1786.46	111
1786.87	123
1787.28	117
1787.69	85
1788.11	111
1788.52	133
1788.93	113
1789.34	139
1789.75	113
1790.17	101
1790.58	131
1790.99	121
1791.4	101
1791.81	123
1792.22	87
1792.63	129
1793.05	151
1793.46	91
1793.87	143
1794.28	95
1794.69	143
1795.1	119
1795.52	137
1795.93	85
1796.34	131
1796.75	99
1797.16	135
1797.57	137
1797.98	77
1798.39	177
1798.81	73
1799.22	133
1799.63	93
1800.04	117
1800.45	119
1800.86	103
1801.27	101
1801.68	103
1802.09	145
1802.5	61
1802.91	169
1803.32	67
1803.73	153
1804.15	99
1804.56	123
1804.97	127
1805.38	109
1805.79	131
1806.2	135
1806.61	131
1807.02	97
1807.43	145
1807.84	83
1808.25	155
1808.66	85
1809.07	103
1809.48	129
1809.89	93
1810.3	99
1810.71	135
1811.12	121
1811.53	97
1811.94	113
1812.35	95
1812.76	129
1813.17	93
1813.58	107
1813.99	145
1814.4	95
1814.81	95
1815.22	111
1815.63	107
1816.04	159
1816.45	77
1816.86	147
1817.27	123
1817.68	91
1818.09	119
1818.5	115
1818.91	95
1819.32	81
1819.73	139
1820.14	73
1820.55	171
1820.96	57
1821.37	141
1821.78	111
1822.19	87
1822.6	137
1823.01	85
1823.42	115
1823.82	91
1824.23	167
1824.64	101
1825.05	151
1825.46	77
1825.87	127
1826.28	113
1826.69	99
1827.1	131
1827.51	85
1827.91	135
1828.32	83
1828.73	129
1829.14	99
1829.55	129
1829.96	73
1830.37	143
1830.78	107
1831.18	99
1831.59	145
1832	91
1832.41	153
1832.82	93
1833.23	139
1833.64	117
1834.05	107
1834.45	109
1834.86	129
1835.27	127
1835.68	117
1836.09	117
1836.49	103
1836.9	123
1837.31	109
1837.72	103
1838.13	143
1838.53	91
1838.94	101
1839.35	129
1839.76	99
1840.17	117
1840.58	95
1840.98	115
1841.39	103
1841.8	131
1842.21	89
1842.61	165
1843.02	109
1843.43	117
1843.84	141
1844.25	97
1844.65	159
1845.06	69
1845.47	135
1845.88	109
1846.28	132.842
1846.69	103.16
1847.1	128.405
1847.51	99.8237
1847.91	122.761
1848.32	131.651
1848.73	99.4015
1849.14	159.884
1849.54	48.6097
1849.95	148.78
1850.36	117.066
1850.77	128.412
1851.17	102.519
1851.58	115.344
1851.99	94.8588
1852.39	132.918
1852.8	127.152
1853.21	106.128
1853.62	132.737
1854.02	63.3836
1854.43	137.36
1854.84	109.897
1855.24	130.331
1855.65	101.16
1856.06	105.643
1856.46	112.816
1856.87	140.93
1857.28	114.233
1857.68	120.142
1858.09	123.401
1858.5	88.0258
1858.9	132.411
1859.31	105.612
1859.72	118.576
1860.12	125.022
1860.53	107.053
1860.94	121.921
1861.34	129.623
1861.75	96.8851
1862.15	129.612
1862.56	93.2976
1862.97	114.546
1863.37	129.804
1863.78	102.236
1864.19	119.455
1864.59	111.736
1865	101.553
1865.4	108.052
1865.81	132.547
1866.22	89.0385
1866.62	143.317
1867.03	102.791
1867.43	122.545
1867.84	121.606
1868.25	109.124
1868.65	115.812
1869.06	112.547
1869.46	119.3
1869.87	118.917
1870.28	127.787
1870.68	100.42
1871.09	138.843
1871.49	112.91
1871.9	127.649
1872.3	120.371
1872.71	107.836
1873.12	122.779
1873.52	119.914
1873.93	112.927
1874.33	121.249
1874.74	107.44
1875.14	114.355
1875.55	143.141
1875.95	117.722
1876.36	120.569
1876.76	107.64
1877.17	111.092
1877.57	125.302
1877.98	115.868
1878.38	110.005
1878.79	115.533
1879.19	108.487
1879.6	115.482
1880	139.531
1880.41	119.643
1880.81	116.817
1881.22	112.006
1881.63	95.3901
1882.03	126.196
1882.43	124.551
1882.84	116.179
1883.24	117.371
1883.65	110.777
1884.05	112.809
1884.46	122.7
1884.86	133.871
1885.27	102.24
1885.67	145.333
1886.08	99.14
1886.48	134.726
1886.89	127.227
1887.29	121.562
1887.69	118.637
1888.1	105.34
1888.5	112.004
1888.85	127
1889.26	149
1889.67	65
1890.08	161
1890.49	67
1890.9	147
1891.3	101
1891.71	127
1892.12	97
1892.53	101
1892.94	131
1893.35	103
1893.76	131
1894.17	59
1894.58	157
1894.99	87
1895.4	135
1895.81	93
1896.22	121
1896.62	137
1897.03	103
1897.44	117
1897.85	119
1898.26	141
1898.67	89
1899.08	149
1899.49	99
1899.9	137
1900.3	101
1900.71	99
1901.12	137
1901.53	85
1901.94	107
1902.35	129
1902.75	97
1903.16	107
1903.57	115
1903.98	105
1904.39	163
1904.8	99
1905.21	107
1905.61	141
1906.02	101
1906.43	117
1906.84	129
1907.25	113
1907.66	141
1908.06	95
1908.47	113
1908.88	135
1909.29	95
1909.7	123
1910.1	123
1910.51	103
1910.92	103
1911.33	137
1911.73	101
1912.14	165
1912.55	81
1912.96	133
1913.37	107
1913.77	105
1914.18	117
1914.59	115
1915	111
1915.4	95
1915.81	137
1916.22	87
1916.63	171
1917.03	59
1917.44	129
1917.85	93
1918.26	105
1918.66	147
1919.07	101
1919.48	135
1919.89	91
1920.29	129
1920.7	95
1921.11	137
1921.51	49
1921.92	155
1922.33	113
1922.73	101
1923.14	131
1923.55	105
1923.96	115
1924.36	119
1924.77	115
1925.18	109
1925.58	115
1925.99	67
1926.4	143
1926.8	91
1927.21	109
1927.62	123
1928.02	93
1928.43	131
1928.84	119
1929.24	109
1929.65	125
1930.06	99
1930.46	93
1930.87	127
1931.28	125
1931.68	123
1932.09	113
1932.49	97
1932.9	123
1933.31	141
1933.71	81
1934.12	161
1934.53	75
1934.93	125
1935.34	107
1935.74	123
1936.15	127
1936.56	69
1936.96	119
1937.37	119
1937.78	159
1938.18	63
1938.59	165
1938.99	53
1939.4	141
1939.8	123
1940.21	109
1940.62	137
1941.02	65
1941.43	135
1941.83	141
1942.24	147
1942.64	85
1943.05	149
1943.45	61
1943.86	137
1944.27	109
1944.67	121
1945.08	137
1945.48	101
1945.89	117
1946.29	119
1946.7	129
1947.1	113
1947.51	119
1947.91	83
1948.32	151
1948.72	81
1949.13	121
1949.53	127
1949.94	79
1950.34	149
1950.75	125
1951.15	119
1951.56	117
1951.96	111
1952.37	99
1952.77	117
1953.18	111
1953.58	109
1953.99	121
1954.39	115
1954.8	121
1955.2	131
1955.61	81
1956.01	143
1956.42	87
1956.82	137
1957.23	115
1957.63	95
1958.03	133
1958.44	101
1958.84	101
1959.25	101
1959.65	143
1960.06	103
1960.46	163
1960.86	81
1961.27	155
1961.67	129
1962.08	83
1962.48	139
1962.89	99
1963.29	131
1963.69	103
1964.1	145
1964.5	101
1964.91	137
1965.31	87
1965.71	135
1966.12	117
1966.52	89
1966.93	133
1967.33	73
1967.73	135
1968.14	97
1968.54	147
1968.94	121
1969.35	133
1969.75	79
1970.15	145
1970.56	101
1970.96	93
1971.37	143
1971.77	73
1972.17	137
1972.58	101
1972.98	129
1973.38	105
1973.79	117
1974.19	99
1974.59	161
1974.99	133
1975.4	123
1975.8	135
1976.21	85
1976.61	131
1977.01	123
1977.41	109
1977.82	145
1978.22	99
1978.62	105
1979.03	113
1979.43	117
1979.83	127
1980.24	95
1980.64	113
1981.04	115
1981.44	135
1981.85	105
1982.25	147
1982.65	85
1983.05	123
1983.46	129
1983.86	103
1984.26	149
1984.66	77
1985.07	121
1985.47	113
1985.87	147
1986.27	105
1986.68	135
1987.08	87
1987.48	119
1987.88	133
1988.29	109
1988.69	149
1989.09	61
1989.49	121
1989.89	103
1990.3	163
1990.7	103
1991.1	129
1991.5	61
1991.9	127
1992.31	137
1992.71	111
1993.11	163
1993.51	41
1993.91	149
1994.32	119
1994.72	129
1995.12	95
1995.52	131
1995.92	105
1996.32	133
1996.73	133
1997.13	121
1997.53	143
1997.93	85
1998.33	143
1998.73	115
1999.14	121
1999.54	127
1999.94	105
2000.34	131
2000.74	121
2001.14	105
2001.54	149
2001.94	117
2002.35	103
2002.75	117
2003.15	137
2003.55	103
2003.95	119
2004.35	93
2004.75	111
2005.15	139
2005.55	91
2005.96	135
2006.36	91
2006.76	133
2007.16	109
2007.56	153
2007.96	101
2008.36	139
2008.76	95
2009.16	143
2009.56	147
2009.96	91
2010.36	163
2010.76	83
2011.16	141
2011.57	107
2011.97	141
2012.37	87
2012.77	129
2013.17	77
2013.57	149
2013.97	123
2014.37	89
2014.77	177
2015.17	81
2015.57	151
2015.97	85
2016.37	133
2016.77	123
2017.17	107
2017.57	107
2017.97	133
2018.37	127
2018.77	79
2019.17	153
2019.57	83
2019.97	133
2020.37	99
2020.77	105
2021.17	133
2021.57	109
2021.97	115
2022.37	143
2022.77	129
2023.17	145
2023.57	127
2023.97	105
2024.37	117
2024.77	121
2025.17	111
2025.57	135
2025.97	103
2026.37	107
2026.77	139
2027.16	113
2027.56	145
2027.96	99
2028.36	121
2028.76	105
2029.16	119
2029.56	117
2029.96	147
2030.36	91
2030.76	111
2031.16	117
2031.56	121
2031.96	149
2032.35	47
2032.75	143
2033.15	101
2033.55	151
2033.95	99
2034.35	143
2034.75	87
2035.15	133
2035.54	139
2035.94	97
2036.34	173
2036.74	63
2037.14	139
2037.54	121
2037.94	135
2038.34	105
2038.74	115
2039.13	103
2039.53	129
2039.93	141
2040.33	95
2040.73	163
2041.12	55
2041.52	151
2041.92	127
2042.32	121
2042.72	121
2043.12	113
2043.51	113
2043.91	127
2044.31	109
2044.71	105
2045.11	149
2045.51	75
2045.9	131
2046.3	101
2046.7	109
2047.1	117
2047.49	99
2047.89	123
2048.29	139
2048.69	119
2049.09	131
2049.48	103
2049.88	93
2050.28	119
2050.68	129
2051.07	99
2051.47	115
2051.87	91
2052.27	143
2052.67	149
2053.06	91
2053.46	149
2053.86	93
2054.26	133
2054.65	105
2055.05	117
2055.45	101
2055.85	123
2056.24	99
2056.64	125
2057.04	135
2057.43	73
2057.83	153
2058.23	87
2058.62	155
2059.02	99
2059.42	127
2059.82	111
2060.21	117
2060.61	117
2061.01	117
2061.4	143
2061.8	79
2062.2	175
2062.59	87
2062.99	137
2063.39	105
2063.79	129
2064.18	133
2064.58	113
2064.97	129
2065.37	123
2065.77	137
2066.16	75
2066.56	147
2066.96	75
2067.35	147
2067.75	113
2068.15	113
2068.54	123
2068.94	95
2069.34	117
2069.73	131
2070.13	115
2070.52	105
2070.92	133
2071.32	103
2071.71	135
2072.11	95
2072.51	97
2072.9	137
2073.3	105
2073.69	117
2074.09	111
2074.49	113
2074.88	135
2075.28	99
2075.67	119
2076.07	135
2076.47	95
2076.86	113
2077.26	113
2077.65	101
2078.05	75
2078.44	159
2078.84	99
2079.23	151
2079.63	81
2080.03	125
2080.42	129
2080.82	109
2081.21	115
2081.61	113
2082	115
2082.4	111
2082.79	141
2083.19	81
2083.58	145
2083.98	73
2084.37	157
2084.77	127
2085.16	107
2085.56	129
2085.95	101
2086.35	121
2086.74	107
2087.14	129
2087.53	113
2087.93	169
2088.32	71
2088.72	139
2089.11	103
2089.51	117
2089.9	131
2090.3	89
2090.69	127
2091.09	117
2091.48	147
2091.88	99
2092.27	143
2092.67	73
2093.06	133
2093.46	107
2093.85	95
2094.25	149
2094.64	105
2095.03	115
2095.43	103
2095.82	123
2096.22	113
2096.61	115
2097.01	79
2097.4	129
2097.79	129
2098.19	91
2098.58	97
2098.98	91
2099.37	117
2099.76	125
2100.16	113
2100.55	157
2100.95	79
2101.34	115
2101.73	129
2102.13	109
2102.52	131
2102.92	95
2103.31	113
2103.7	109
2104.1	135
2104.49	87
2104.88	173
2105.28	65
2105.67	115
2106.07	121
2106.46	113
2106.85	143
2107.25	73
2107.64	111
2108.03	101
2108.43	141
2108.82	79
2109.21	149
2109.61	65
2110	141
2110.39	107
2110.79	121
2111.18	139
2111.57	71
2111.97	141
2112.36	109
2112.75	139
2113.15	85
2113.54	157
2113.93	95
2114.32	147
2114.72	107
2115.11	91
2115.5	155
2115.9	75
2116.29	141
2116.68	117
2117.08	123
2117.47	93
2117.86	107
2118.25	89
2118.65	141
2119.04	109
2119.43	121
2119.82	129
2120.22	99
2120.61	125
2121	121
2121.39	121
2121.79	115
2122.18	81
2122.57	113
2122.96	147
2123.36	103
2123.75	131
2124.14	119
2124.53	107
2124.93	119
2125.32	135
2125.71	83
2126.1	139
2126.49	95
2126.89	123
2127.28	123
2127.67	75
2128.06	157
2128.45	107
2128.85	121
2129.24	113
2129.63	127
2130.02	99
2130.41	147
2130.81	73
2131.2	137
2131.59	121
2131.98	91
2132.37	143
2132.76	67
2133.16	137
2133.55	83
2133.94	141
2134.33	101
2134.72	143
2135.11	85
2135.5	153
2135.9	127
2136.29	101
2136.68	163
2137.07	83
2137.46	133
2137.85	87
2138.24	141
2138.63	123
2139.03	109
2139.42	105
2139.81	145
2140.2	131
2140.59	99
2140.98	149
2141.37	85
2141.76	137
2142.15	87
2142.55	115
2142.94	127
2143.33	97
2143.72	97
2144.11	105
2144.5	113
2144.89	121
2145.28	117
2145.67	95
2146.06	127
2146.45	97
2146.84	109
2147.23	129
2147.62	95
2148.02	109
2148.4	129
2148.8	113
2149.19	147
2149.58	95
2149.97	117
2150.36	113
2150.75	113
2151.14	117
2151.53	131
2151.92	95
2152.31	91
2152.7	119
2153.09	103
2153.48	133
2153.87	71
2154.26	141
2154.65	121
2155.04	137
2155.43	107
2155.82	133
2156.21	79
2156.6	105
2156.99	139
2157.38	83
2157.77	151
2158.16	49
2158.55	145
2158.94	105
2159.33	121
2159.72	107
2160.11	109
2160.5	101
2160.89	111
2161.28	125
2161.66	109
2162.05	161
2162.44	63
2162.83	137
2163.22	103
2163.61	135
2164	119
2164.39	93
2164.78	107
2165.17	133
2165.56	117
2165.95	127
2166.34	129
2166.73	73
2167.11	135
2167.5	111
2167.89	115
2168.28	87
2168.67	95
2169.06	119
2169.45	139
2169.84	87
2170.23	127
2170.62	111
2171	107
2171.39	123
2171.78	125
2172.17	109
2172.56	127
2172.95	89
2173.34	137
2173.73	139
2174.11	95
2174.5	175
2174.89	85
2175.28	135
2175.67	89
2176.06	137
2176.45	99
2176.83	109
2177.22	109
2177.61	111
2178	151
2178.39	67
2178.78	165
2179.16	65
2179.55	143
2179.94	95
2180.33	135
2180.72	109
2181.1	107
2181.49	107
2181.88	129
2182.27	135
2182.66	61
2183.04	163
2183.43	87
2183.82	145
2184.21	101
2184.6	117
2184.98	133
2185.37	103
2185.76	109
2186.15	141
2186.53	107
2186.92	91
2187.31	139
2187.7	107
2188.08	145
2188.47	91
2188.86	109
2189.25	129
2189.63	99
2190.02	101
2190.41	113
2190.8	111
2191.18	137
2191.57	95
2191.96	107
2192.34	143
2192.73	93
2193.12	103
2193.51	127
2193.89	69
2194.28	99
2194.67	129
2195.06	95
2195.44	161
2195.83	75
2196.22	135
2196.6	111
2196.99	131
2197.38	103
2197.76	137
2198.15	119
2198.54	107
2198.92	131
2199.31	87
2199.7	147
2200.08	39
2200.47	153
2200.86	109
2201.24	133
2201.63	121
2202.02	103
2202.4	119
2202.79	97
2203.18	125
2203.56	97
2203.95	155
2204.34	51
2204.72	133
2205.11	129
2205.49	133
2205.88	95
2206.27	103
2206.65	101
2207.04	137
2207.43	117
2207.81	101
2208.2	125
2208.58	57
2208.97	145
2209.36	109
2209.74	121
2210.13	107
2210.51	101
2210.9	105
2211.29	109
2211.67	119
2212.06	119
2212.44	113
2212.83	95
2213.21	131
2213.6	133
2213.98	103
2214.37	127
2214.76	83
2215.14	123
2215.53	125
2215.91	88.9532
2216.3	138.08
2216.69	87.7942
2217.07	120.842
2217.46	117.312
2217.84	124.819
2218.23	104.821
2218.61	101.545
2219	101.572
2219.38	123.474
2219.77	136.39
2220.15	86.6816
2220.54	147.747
2220.92	79.2324
2221.31	137.727
2221.69	115.591
2222.08	130.653
2222.46	126.771
2222.85	88.2134
2223.23	123.609
2223.62	105.167
2224	128.026
2224.39	91.1166
2224.77	147.507
2225.16	79.4142
2225.54	126.006
2225.93	107.358
2226.31	110.276
2226.7	130.907
2227.08	91.0825
2227.47	122.922
2227.85	100.327
2228.23	117.338
2228.62	85.8532
2229	148.381
2229.39	95.7051
2229.77	135.474
2230.16	103.37
2230.54	125.792
2230.92	120.82
2231.31	106.551
2231.69	114.695
2232.08	107.908
2232.46	120.412
2232.85	113.46
2233.23	137.346
2233.62	90.0271
2234	142.691
2234.38	107.571
2234.77	121.327
2235.15	118.109
2235.54	104.551
2235.92	130.623
2236.3	117.045
2236.69	122.952
2237.07	115.73
2237.46	102.285
2237.84	107.482
2238.22	114.949
2238.61	102.368
2238.99	116.827
2239.37	120.319
2239.76	98.9349
2240.14	127.515
2240.53	122.384
2240.91	107.518
2241.29	123.336
2241.68	106.856
2242.06	118.881
2242.44	113.646
2242.83	104.148
2243.21	114.041
2243.59	118.629
2243.98	89.6755
2244.36	126.463
2244.74	107.444
2245.13	118.731
2245.51	121.9
2245.89	97.183
2246.28	126.051
2246.66	96.6628
2247.04	127.733
2247.43	115.673
2247.81	118.537
2248.19	78.252
2248.58	135.75
2248.96	119.048
2249.34	106.882
2249.73	134.21
2250.11	81.054
2250.49	123.579
2250.88	133.713
2251.26	100.106
2251.64	127.07
2252.02	98.4868
2252.41	75.946
2252.79	135.361
2252.8	137
2253.18	123
2253.57	121
2253.96	119
2254.35	95
2254.74	113
2255.12	127
2255.51	81
2255.9	177
2256.29	89
2256.67	119
2257.06	141
2257.45	131
2257.84	127
2258.22	87
2258.61	129
2259	117
2259.39	127
2259.77	87
2260.16	155
2260.55	83
2260.94	113
2261.32	107
2261.71	107
2262.1	121
2262.48	75
2262.87	111
2263.26	115
2263.65	133
2264.03	65
2264.42	153
2264.81	59
2265.19	151
2265.58	109
2265.97	113
2266.35	125
2266.74	79
2267.13	143
2267.51	127
2267.9	137
2268.29	71
2268.67	133
2269.06	89
2269.45	157
2269.83	105
2270.22	105
2270.61	135
2270.99	85
2271.38	125
2271.77	121
2272.15	127
2272.54	105
2272.93	107
2273.31	97
2273.7	119
2274.08	103
2274.47	93
2274.86	135
2275.24	93
2275.63	119
2276.02	141
2276.4	101
2276.79	135
2277.17	81
2277.56	115
2277.95	121
2278.33	89
2278.72	113
2279.1	109
2279.49	97
2279.88	95
2280.26	137
2280.65	85
2281.03	151
2281.42	87
2281.8	147
2282.19	115
2282.58	123
2282.96	133
2283.35	105
2283.73	115
2284.12	107
2284.5	141
2284.89	93
2285.28	167
2285.66	59
2286.05	131
2286.43	89
2286.82	117
2287.2	133
2287.59	101
2287.97	99
2288.36	99
2288.74	161
2289.13	91
2289.51	161
2289.9	45
2290.28	137
2290.67	107
2291.05	117
2291.44	139
2291.82	93
2292.21	119
2292.59	101
2292.98	129
2293.36	113
2293.75	113
2294.13	63
2294.52	139
2294.9	117
2295.29	115
2295.67	105
2296.06	101
2296.44	109
2296.83	123
2297.21	115
2297.6	131
2297.98	105
2298.36	83
2298.75	121
2299.13	121
2299.52	109
2299.9	107
2300.29	101
2300.67	121
2301.06	97
2301.44	103
2301.82	151
2302.21	83
2302.59	113
2302.98	109
2303.36	123
2303.75	131
2304.13	121
2304.51	107
2304.9	123
2305.28	137
2305.67	87
2306.05	163
2306.44	85
2306.82	133
2307.2	123
2307.59	121
2307.97	127
2308.35	81
2308.74	117
2309.12	125
2309.51	147
2309.89	61
2310.27	163
2310.66	73
2311.04	141
2311.42	107
2311.81	109
2312.19	163
2312.57	85
2312.96	113
2313.34	99
2313.73	149
2314.11	69
2314.49	159
2314.88	67
2315.26	165
2315.64	134.5
2316.03	119.3
2316.41	147
2316.79	83
2317.18	135
2317.56	113
2317.94	129
2318.32	97
2318.71	129
2319.09	81
2319.47	147
2319.86	107
2320.24	109
2320.62	141
2321.01	91
2321.39	155
2321.77	125
2322.15	117
2322.54	97
2322.92	117
2323.3	97
2323.69	143
2324.07	97
2324.45	117
2324.83	139
2325.22	93
2325.6	107
2325.98	133
2326.36	93
2326.75	139
2327.13	95
2327.51	115
2327.89	119
2328.28	93
2328.66	129
2329.04	131
2329.42	135
2329.81	107
2330.19	153
2330.57	111
2330.95	169
2331.33	91
2331.72	133
2332.1	125
2332.48	109
2332.86	145
2333.24	91
2333.63	121
2334.01	97
2334.39	125
2334.77	75
2335.15	153
2335.54	93
2335.92	139
2336.3	117
2336.68	103
2337.06	135
2337.44	91
2337.83	135
2338.21	79
2338.59	135
2338.97	77
2339.35	167
2339.73	63
2340.12	143
2340.5	127
2340.88	97
2341.26	137
2341.64	89
2342.02	137
2342.41	97
2342.79	145
2343.17	107
2343.55	135
2343.93	97
2344.31	137
2344.69	119
2345.07	119
2345.45	153
2345.84	93
2346.22	141
2346.6	115
2346.98	117
2347.36	111
2347.74	111
2348.12	75
2348.5	125
2348.88	105
2349.26	115
2349.65	127
2350.03	109
2350.41	117
2350.79	129
2351.17	99
2351.55	143
2351.93	99
2352.31	105
2352.69	125
2353.07	97
2353.45	125
2353.83	101
2354.21	123
2354.59	115
2354.98	141
2355.35	95
2355.74	163
2356.12	65
2356.5	123
2356.88	125
2357.26	147
2357.64	139
2358.02	79
2358.4	129
2358.78	109
2359.16	153
2359.54	99
2359.92	145
2360.3	73
2360.68	143
2361.06	99
2361.44	107
2361.82	141
2362.2	51
2362.58	143
2362.96	119
2363.34	147
2363.72	81
2364.1	149
2364.48	97
2364.86	165
2365.24	127
2365.62	113
2366	135
2366.38	77
2366.75	143
2367.14	127
2367.51	113
2367.89	119
2368.27	133
2368.65	107
2369.03	145
2369.41	93
2369.79	121
2370.17	149
2370.55	87
2370.93	137
2371.31	131
2371.69	117
2372.07	105
2372.45	105
2372.83	107
2373.2	135
2373.58	97
2373.96	97
2374.34	111
2374.72	95
2375.1	143
2375.48	135
2375.86	103
2376.24	141
2376.61	85
2376.99	119
2377.37	135
2377.75	115
2378.13	135
2378.51	113
2378.89	131
2379.27	107
2379.65	145
2380.02	101
2380.4	137
2380.78	89
2381.16	151
2381.54	121
2381.92	107
2382.3	147
2382.67	103
2383.05	129
2383.43	101
2383.81	127
2384.19	87
2384.57	155
2384.94	87
2385.32	123
2385.7	129
2386.08	115
2386.46	133
2386.83	85
2387.21	135
2387.59	103
2387.97	159
2388.35	101
2388.73	149
2389.1	91
2389.48	171
2389.86	119
2390.24	111
2390.62	157
2390.99	87
2391.37	147
2391.75	101
2392.13	133
2392.5	115
2392.88	133
2393.26	97
2393.64	139
2394.01	119
2394.39	113
2394.77	143
2395.15	91
2395.52	155
2395.9	93
2396.28	133
2396.66	131
2397.04	133
2397.41	109
2397.79	131
2398.17	125
2398.54	113
2398.92	125
2399.3	101
2399.68	127
2400.05	127
2400.43	117
2400.81	153
2401.18	99
2401.56	103
2401.94	151
2402.32	137
2402.69	151
2403.07	109
2403.45	129
2403.82	155
2404.2	149
2404.58	97
2404.95	143
2405.33	107
2405.71	111
2406.09	163
2406.46	103
2406.84	145
2407.22	85
2407.59	137
2407.97	115
2408.34	141
2408.72	101
2409.1	153
2409.47	85
2409.85	133
2410.23	113
2410.6	105
2410.98	151
2411.36	55
2411.73	153
2412.11	113
2412.49	153
2412.86	111
2413.24	135
2413.61	89
2413.99	127
2414.37	137
2414.74	119
2415.12	175
2415.5	49
2415.87	171
2416.25	103
2416.62	143
2417	111
2417.37	109
2417.75	99
2418.13	141
2418.5	133
2418.88	111
2419.25	151
2419.63	81
2420.01	149
2420.38	105
2420.76	121
2421.13	123
2421.51	111
2421.88	121
2422.26	141
2422.64	115
2423.01	133
2423.39	129
2423.76	99
2424.14	145
2424.51	143
2424.89	109
2425.26	133
2425.64	127
2426.01	129
2426.39	135
2426.76	101
2427.14	157
2427.52	101
2427.89	131
2428.26	133
2428.64	159
2429.02	93
2429.39	135
2429.77	81
2430.14	141
2430.52	141
2430.89	97
2431.26	141
2431.64	111
2432.02	139
2432.39	115
2432.77	141
2433.14	89
2433.51	177
2433.89	83
2434.26	149
2434.64	143
2435.01	87
2435.39	171
2435.76	77
2436.14	153
2436.51	111
2436.89	149
2437.26	119
2437.63	149
2438.01	103
2438.38	139
2438.76	121
2439.13	105
2439.51	179
2439.88	95
2440.26	181
2440.63	95
2441	137
2441.38	135
2441.75	137
2442.13	99
2442.5	157
2442.87	125
2443.25	119
2443.62	155
2444	103
2444.37	171
2444.74	137
2445.12	155
2445.49	161
2445.87	139
2446.24	121
2446.61	139
2446.99	131
2447.36	155
2447.73	133
2448.11	127
2448.48	145
2448.86	151
2449.23	127
2449.6	171
2449.98	139
2450.35	147
2450.72	157
2451.1	141
2451.47	191
2451.84	135
2452.22	173
2452.59	147
2452.97	187
2453.34	147
2453.71	189
2454.08	133
2454.46	165
2454.83	187
2455.2	135
2455.58	207
2455.95	83
2456.32	193
2456.7	175
2457.07	189
2457.44	147
2457.82	187
2458.19	141
2458.56	159
2458.93	157
2459.31	145
2459.68	203
2460.05	101
2460.43	203
2460.8	131
2461.17	179
2461.54	143
2461.92	167
2462.29	159
2462.66	175
2463.03	161
2463.41	153
2463.78	191
2464.15	105
2464.52	193
2464.9	143
2465.27	173
2465.64	139
2466.01	163
2466.39	147
2466.76	171
2467.13	167
2467.5	151
2467.88	175
2468.25	115
2468.62	185
2468.99	157
2469.37	153
2469.74	163
2470.11	137
2470.48	161
2470.85	157
2471.22	135
2471.6	151
2471.97	125
2472.34	159
2472.71	149
2473.08	157
2473.46	131
2473.83	169
2474.2	129
2474.57	141
2474.94	161
2475.32	101
2475.69	183
2476.06	111
2476.43	161
2476.8	161
2477.17	163
2477.55	139
2477.92	145
2478.29	135
2478.66	171
2479.03	169
2479.4	109
2479.77	195
2480.15	91
2480.52	155
2480.89	111
2481.26	153
2481.63	129
2482	129
2482.37	135
2482.74	149
2483.12	143
2483.49	89
2483.86	175
2484.23	95
2484.6	175
2484.97	103
2485.34	161
2485.71	127
2486.08	143
2486.46	133
2486.83	167
2487.2	163
2487.57	87
2487.94	165
2488.31	107
2488.68	165
2489.05	127
2489.42	151
2489.79	157
2490.16	111
2490.53	125
2490.9	147
2491.27	131
2491.64	105
2492.01	147
2492.38	95
2492.76	159
2493.13	111
2493.5	123
2493.87	151
2494.24	129
2494.61	127
2494.98	159
2495.35	137
2495.72	147
2496.09	149
2496.46	111
2496.83	165
2497.2	147
2497.57	115
2497.94	149
2498.31	101
2498.68	133
2499.05	137
2499.42	125
2499.79	167
2500.16	109
2500.53	153
2500.9	127
2501.27	145
2501.64	115
2502.01	173
2502.38	103
2502.75	123
2503.12	133
2503.49	93
2503.86	171
2504.23	73
2504.6	155
2504.97	119
2505.34	159
2505.7	103
2506.07	147
2506.44	113
2506.81	109
2507.18	149
2507.55	109
2507.92	179
2508.29	55
2508.66	137
2509.03	125
2509.4	157
2509.77	131
2510.14	129
2510.5	111
2510.88	151
2511.24	149
2511.61	103
2511.98	153
2512.35	71
2512.72	151
2513.09	123
2513.46	131
2513.83	119
2514.2	119
2514.56	107
2514.93	161
2515.3	123
2515.67	133
2516.04	127
2516.41	107
2516.78	157
2517.15	123
2517.51	121
2517.88	125
2518.25	115
2518.62	133
2518.99	145
2519.36	129
2519.73	139
2520.09	131
2520.46	105
2520.83	139
2521.2	135
2521.57	141
2521.94	141
2522.3	105
2522.67	121
2523.04	125
2523.41	73
2523.78	153
2524.15	83
2524.51	145
2524.88	131
2525.25	157
2525.62	109
2525.98	131
2526.35	129
2526.72	165
2527.09	161
2527.46	89
2527.83	193
2528.19	77
2528.56	151
2528.93	109
2529.3	131
2529.66	111
2530.03	139
2530.4	95
2530.77	123
2531.13	131
2531.5	89
2531.87	161
2532.24	71
2532.61	153
2532.97	81
2533.34	141
2533.71	117
2534.07	119
2534.44	113
2534.81	139
2535.18	117
2535.54	83
2535.91	157
2536.28	89
2536.65	157
2537.01	83
2537.38	141
2537.75	141
2538.11	117
2538.48	121
2538.85	139
2539.22	125
2539.58	91
2539.95	131
2540.32	87
2540.68	129
2541.05	97
2541.42	125
2541.78	137
2542.15	89
2542.52	125
2542.89	129
2543.25	131
2543.62	159
2543.99	105
2544.35	117
2544.72	137
2545.08	115
2545.45	119
2545.82	151
2546.19	109
2546.55	109
2546.92	135
2547.28	99
2547.65	161
2548.02	85
2548.38	137
2548.75	129
2549.12	139
2549.48	113
2549.85	129
2550.21	101
2550.58	121
2550.95	139
2551.31	91
2551.68	147
2552.05	77
2552.41	167
2552.78	97
2553.14	129
2553.51	109
2553.88	137
2554.24	93
2554.61	109
2554.97	137
2555.34	97
2555.71	179
2556.07	65
2556.44	169
2556.8	117
2557.17	137
2557.53	107
2557.9	127
2558.27	117
2558.63	117
2559	153
2559.36	101
2559.73	165
2560.09	49
2560.46	139
2560.82	125
2561.19	119
2561.55	139
2561.92	99
2562.29	107
2562.65	145
2563.02	129
2563.38	115
2563.75	129
2564.11	71
2564.48	141
2564.84	115
2565.21	137
2565.57	111.107
2565.94	94.4289
2566.3	121.735
2566.67	128.593
2567.03	110.642
2567.4	120.782
2567.76	106.451
2568.13	109.988
2568.49	146.664
2568.86	123.295
2569.22	111.498
2569.59	128.606
2569.95	102.926
2570.32	128.802
2570.68	136.698
2571.05	116.746
2571.41	133.311
2571.78	92.8835
2572.14	138.521
2572.51	130.353
2572.87	147.712
2573.23	123.562
2573.6	124.792
2573.96	92.0983
2574.33	139.361
2574.69	143.131
2575.06	90.7216
2575.42	155.602
2575.79	89.8762
2576.15	146.483
2576.51	111.777
2576.88	124.329
2577.24	118.742
2577.61	109.433
2577.97	115.882
2578.34	119.724
2578.7	144.952
2579.06	94.1397
2579.43	148.495
2579.79	106.001
2580.16	138.169
2580.52	125.812
2580.88	139.002
2581.25	129.812
2581.61	120.609
2581.98	122.918
2582.34	149.495
2582.7	127.251
2583.07	119.245
2583.43	137.955
2583.8	112.627
2584.16	130.95
2584.52	112.593
2584.89	122.629
2585.25	127.636
2585.61	129.133
2585.98	114.639
2586.34	138.332
2586.7	128.017
2587.07	135.844
2587.43	128.637
2587.8	138.66
2588.16	121.105
2588.52	130.223
2588.88	118.361
2589.25	133.782
2589.61	120.17
2589.97	109.8
2590.34	136.877
2590.7	105.781
2591.06	153.542
2591.43	118.724
2591.79	139.978
2592.15	99.4389
2592.52	130.499
2592.88	133.308
2593.24	110.423
2593.61	147.862
2593.97	88.3849
2594.33	133.936
2594.7	119.071
2595.06	145.117
2595.42	117.703
2595.78	139.887
2596.15	104.646
2596.51	152.326
2596.87	119.447
2597.24	132.27
2597.6	132.477
2597.96	102.458
2598.32	125.935
2598.69	147.418
2599.05	128.553
2599.41	136.211
2599.78	121.548
2600.14	105.951
2600.5	123.92
2600.86	127.397
2600.95	127
2601.31	137
2601.68	111
2602.05	103
2602.42	137
2602.78	137
2603.15	117
2603.52	153
2603.89	113
2604.25	171
2604.62	139
2604.99	137
2605.35	141
2605.72	103
2606.09	131
2606.46	125
2606.82	161
2607.19	117
2607.56	183
2607.92	87
2608.29	135
2608.66	133
2609.03	131
2609.39	157
2609.76	109
2610.13	161
2610.49	131
2610.86	177
2611.23	99
2611.59	177
2611.96	95
2612.33	163
2612.69	141
2613.06	135
2613.43	181
2613.79	81
2614.16	135
2614.53	125
2614.89	161
2615.26	109
2615.62	167
2615.99	77
2616.36	161
2616.72	123
2617.09	147
2617.46	165
2617.82	111
2618.19	163
2618.56	143
2618.92	163
2619.29	103
2619.65	151
2620.02	117
2620.39	185
2620.75	165
2621.12	155
2621.48	177
2621.85	123
2622.22	177
2622.58	141
2622.95	155
2623.31	131
2623.68	161
2624.04	155
2624.41	169
2624.78	137
2625.14	143
2625.51	169
2625.87	145
2626.24	167
2626.6	155
2626.97	125
2627.34	177
2627.7	143
2628.07	173
2628.43	173
2628.8	147
2629.16	187
2629.53	171
2629.9	167
2630.26	145
2630.63	199
2630.99	139
2631.36	203
2631.72	139
2632.09	185
2632.45	165
2632.82	173
2633.18	181
2633.55	163
2633.91	177
2634.28	155
2634.64	191
2635.01	163
2635.37	219
2635.74	121
2636.1	217
2636.47	151
2636.83	167
2637.2	163
2637.56	175
2637.93	187
2638.29	179
2638.66	215
2639.02	161
2639.39	237
2639.75	131
2640.12	233
2640.48	179
2640.84	205
2641.21	211
2641.57	213
2641.94	227
2642.3	217
2642.67	241
2643.03	201
2643.4	247
2643.76	163
2644.13	255
2644.49	197
2644.85	245
2645.22	223
2645.58	207
2645.95	221
2646.31	237
2646.68	255
2647.04	227
2647.4	245
2647.77	201
2648.13	257
2648.5	239
2648.86	265
2649.22	257
2649.59	239
2649.95	267
2650.32	249
2650.68	267
2651.04	313
2651.41	273
2651.77	243
2652.14	279
2652.5	285
2652.86	259
2653.23	285
2653.59	293
2653.95	329
2654.32	321
2654.68	297
2655.05	331
2655.41	309
2655.77	363
2656.14	337
2656.5	345
2656.86	303
2657.23	345
2657.59	349
2657.95	371
2658.32	391
2658.68	297
2659.04	445
2659.41	303
2659.77	427
2660.13	391
2660.5	389
2660.86	391
2661.22	385
2661.59	415
2661.95	439
2662.31	475
2662.68	431
2663.04	483
2663.4	431
2663.76	475
2664.13	413
2664.49	487
2664.85	533
2665.22	475
2665.58	491
2665.94	563
2666.3	547
2666.67	465
2667.03	585
2667.39	527
2667.76	571
2668.12	549
2668.48	617
2668.84	591
2669.21	591
2669.57	571
2669.93	683
2670.29	639
2670.66	631
2671.02	717
2671.38	653
2671.74	677
2672.11	657
2672.47	719
2672.83	755
2673.19	697
2673.56	731
2673.92	763
2674.28	757
2674.64	733
2675	769
2675.37	797
2675.73	849
2676.09	791
2676.45	821
2676.81	853
2677.18	833
2677.54	857
2677.9	851
2678.26	839
2678.62	959
2678.99	873
2679.35	877
2679.71	933
2680.07	955
2680.43	919
2680.8	959
2681.16	967
2681.52	933
2681.88	999
2682.24	971
2682.6	1019
2682.97	927
2683.33	1045
2683.69	1009
2684.05	975
2684.41	957
2684.77	1033
2685.13	933
2685.5	1021
2685.86	1067
2686.22	981
2686.58	1071
2686.94	923
2687.3	1051
2687.66	985
2688.03	1053
2688.39	1021
2688.75	989
2689.11	987
2689.47	1013
2689.83	981
2690.19	911
2690.55	995
2690.91	915
2691.28	979
2691.64	901
2692	965
2692.36	917
2692.72	889
2693.08	869
2693.44	881
2693.8	937
2694.16	857
2694.52	895
2694.88	797
2695.24	871
2695.61	851
2695.97	797
2696.33	757
2696.69	699
2697.05	783
2697.41	783
2697.77	709
2698.13	715
2698.49	719
2698.85	659
2699.21	737
2699.57	665
2699.93	637
2700.29	673
2700.65	635
2701.01	627
2701.37	615
2701.73	623
2702.09	627
2702.45	515
2702.81	561
2703.18	573
2703.53	555
2703.89	547
2704.25	525
2704.62	491
2704.98	517
2705.33	521
2705.69	479
2706.06	497
2706.42	397
2706.78	451
2707.13	439
2707.49	483
2707.85	419
2708.22	437
2708.57	387
2708.93	437
2709.29	399
2709.65	349
2710.01	405
2710.37	343
2710.73	401
2711.09	367
2711.45	363
2711.81	361
2712.17	353
2712.53	343
2712.89	339
2713.25	375
2713.61	315
2713.97	379
2714.33	301
2714.69	339
2715.05	283
2715.41	313
2715.76	287
2716.12	297
2716.48	259
2716.84	303
2717.2	301
2717.56	245
2717.92	305
2718.28	235
2718.64	287
2719	231
2719.35	291
2719.71	289
2720.07	255
2720.43	227
2720.79	261
2721.15	241
2721.51	245
2721.87	243
2722.23	197
2722.59	253
2722.94	241
2723.3	215
2723.66	265
2724.02	217
2724.38	201
2724.74	247
2725.1	223
2725.46	253
2725.81	179
2726.17	199
2726.53	223
2726.89	223
2727.25	189
2727.61	223
2727.96	175
2728.32	221
2728.68	205
2729.04	217
2729.4	219
2729.75	177
2730.11	199
2730.47	201
2730.83	203
2731.19	181
2731.55	243
2731.91	171
2732.26	187
2732.62	203
2732.98	179
2733.34	235
2733.69	133
2734.05	197
2734.41	169
2734.77	199
2735.13	177
2735.48	219
2735.84	137
2736.2	177
2736.56	203
2736.91	177
2737.27	245
2737.63	115
2737.99	213
2738.35	165
2738.7	191
2739.06	157
2739.42	183
2739.78	161
2740.13	179
2740.49	169
2740.85	147
2741.21	205
2741.56	103
2741.92	189
2742.28	161
2742.64	189
2742.99	163
2743.35	151
2743.71	155
2744.06	187
2744.42	151
2744.78	137
2745.14	159
2745.49	113
2745.85	171
2746.21	173
2746.57	155
2746.92	145
2747.28	151
2747.64	145
2747.99	179
2748.35	141
2748.71	161
2749.06	151
2749.42	135
2749.78	161
2750.13	163
2750.49	137
2750.85	151
2751.2	127
2751.56	151
2751.92	155
2752.27	163
2752.63	153
2752.99	129
2753.34	135
2753.7	149
2754.06	153
2754.41	103
2754.77	159
2755.13	123
2755.48	137
2755.84	143
2756.2	103
2756.55	171
2756.91	121
2757.26	169
2757.62	147
2757.98	161
2758.33	147
2758.69	163
2759.04	125
2759.4	157
2759.76	173
2760.11	91
2760.47	197
2760.83	101
2761.18	163
2761.54	131
2761.89	167
2762.25	133
2762.61	157
2762.96	133
2763.32	159
2763.67	157
2764.03	97
2764.38	191
2764.74	107
2765.1	159
2765.45	131
2765.81	147
2766.16	133
2766.52	145
2766.88	123
2767.23	141
2767.59	135
2767.94	93
2768.3	163
2768.65	115
2769.01	163
2769.36	115
2769.72	137
2770.07	155
2770.43	133
2770.78	153
2771.14	139
2771.49	131
2771.85	133
2772.21	143
2772.56	95
2772.92	149
2773.27	115
2773.63	157
2773.98	145
2774.34	105
2774.69	109
2775.05	135
2775.4	125
2775.76	135
2776.11	125
2776.47	121
2776.82	145
2777.18	135
2777.53	151
2777.89	163
2778.24	113
2778.59	103
2778.95	153
2779.3	131
2779.66	169
2780.01	123
2780.37	147
2780.72	131
2781.08	141
2781.43	139
2781.79	161
2782.14	109
2782.49	149
2782.85	163
2783.2	131
2783.56	165
2783.91	67
2784.27	135
2784.62	101
2784.98	147
2785.33	117
2785.68	147
2786.04	81
2786.39	135
2786.75	147
2787.1	103
2787.46	167
2787.81	55
2788.16	175
2788.52	125
2788.87	159
2789.22	111
2789.58	171
2789.93	111
2790.29	141
2790.64	161
2790.99	115
2791.35	167
2791.7	77
2792.06	165
2792.41	119
2792.76	135
2793.12	137
2793.47	119
2793.82	113
2794.18	161
2794.53	137
2794.88	113
2795.24	147
2795.59	99
2795.95	133
2796.3	129
2796.65	131
2797.01	121
2797.36	113
2797.71	109
2798.07	139
2798.42	119
2798.77	121
2799.13	139
2799.48	107
2799.83	155
2800.19	127
2800.54	125
2800.89	133
2801.24	107
2801.6	145
2801.95	149
2802.3	117
2802.66	135
2803.01	107
2803.36	135
2803.72	141
2804.07	137
2804.42	99
2804.77	155
2805.13	95
2805.48	137
2805.83	135
2806.19	97
2806.54	145
2806.89	99
2807.24	141
2807.6	109
2807.95	163
2808.3	93
2808.65	169
2809.01	109
2809.36	125
2809.71	129
2810.06	99
2810.42	151
2810.77	83
2811.12	145
2811.47	107
2811.83	137
2812.18	107
2812.53	133
2812.88	93
2813.24	129
2813.59	119
2813.94	127
2814.29	169
2814.64	113
2815	145
2815.35	99
2815.7	151
2816.05	115
2816.4	161
2816.76	99
2817.11	155
2817.46	139
2817.81	101
2818.16	165
2818.52	105
2818.87	151
2819.22	107
2819.57	149
2819.92	131
2820.28	133
2820.63	101
2820.98	147
2821.33	131
2821.68	117
2822.03	151
2822.39	91
2822.74	121
2823.09	111
2823.44	111
2823.79	159
2824.14	91
2824.49	99
2824.85	147
2825.2	123
2825.55	135
2825.9	123
2826.25	125
2826.6	131
2826.95	117
2827.31	119
2827.66	157
2828.01	129
2828.36	115
2828.71	145
2829.06	107
2829.41	133
2829.76	103
2830.11	113
2830.46	109
2830.82	149
2831.17	117
2831.52	161
2831.87	91
2832.22	107
2832.57	123
2832.92	111
2833.27	143
2833.62	77
2833.97	153
2834.32	99
2834.68	153
2835.03	97
2835.38	163
2835.73	79
2836.08	149
2836.43	143
2836.78	115
2837.13	159
2837.48	59
2837.83	159
2838.18	111
2838.53	153
2838.88	97
2839.23	129
2839.58	103
2839.93	141
2840.28	133
2840.63	97
2840.98	149
2841.33	85
2841.68	145
2842.03	119
2842.38	127
2842.73	117
2843.08	131
2843.43	99
2843.78	145
2844.13	123
2844.48	109
2844.83	143
2845.18	87
2845.53	155
2845.88	143
2846.23	127
2846.58	111
2846.93	119
2847.28	103
2847.63	155
2847.98	97
2848.33	115
2848.68	117
2849.03	115
2849.38	139
2849.73	113
2850.08	107
2850.43	133
2850.78	117
2851.13	135
2851.48	131
2851.83	105
2852.18	153
2852.53	115
2852.88	113
2853.23	109
2853.57	141
2853.92	87
2854.27	147
2854.62	89
2854.97	133
2855.32	139
2855.67	99
2856.02	129
2856.37	103
2856.72	131
2857.07	91
2857.42	157
2857.76	89
2858.11	153
2858.46	81
2858.81	145
2859.16	133
2859.51	73
2859.86	153
2860.21	89
2860.56	149
2860.91	103
2861.25	117
2861.6	107
2861.95	135
2862.3	77
2862.65	135
2863	107
2863.35	111
2863.69	157
2864.04	75
2864.39	147
2864.74	115
2865.09	119
2865.44	109
2865.78	139
2866.13	83
2866.48	137
2866.83	111
2867.18	129
2867.53	133
2867.88	91
2868.22	133
2868.57	129
2868.92	141
2869.27	141
2869.62	121
2869.96	93
2870.31	143
2870.66	129
2871.01	117
2871.36	115
2871.7	107
2872.05	139
2872.4	143
2872.75	85
2873.1	145
2873.44	69
2873.79	119
2874.14	109
2874.49	115
2874.84	109
2875.18	109
2875.53	111
2875.88	131
2876.23	161
2876.57	69
2876.92	165
2877.27	71
2877.62	135
2877.97	123
2878.31	139
2878.66	121
2879.01	73
2879.36	135
2879.7	115
2880.05	143
2880.4	109
2880.74	163
2881.09	79
2881.44	141
2881.79	97
2882.13	109
2882.48	129
2882.83	97
2883.18	101
2883.52	115
2883.87	143
2884.22	63
2884.56	165
2884.91	77
2885.26	151
2885.61	89
2885.95	117
2886.3	133
2886.65	95
2886.99	135
2887.34	125
2887.69	147
2888.03	91
2888.38	139
2888.73	105
2889.07	131
2889.42	103
2889.77	123
2890.11	149
2890.46	95
2890.81	127
2891.15	123
2891.5	95
2891.85	115
2892.19	103
2892.54	115
2892.89	123
2893.23	109
2893.58	105
2893.93	111
2894.27	87
2894.62	119
2894.96	137
2895.31	95
2895.66	143
2896	83
2896.35	118.81
2896.7	126.582
2897.04	103.497
2897.39	147.661
2897.73	120.738
2898.08	96.0089
2898.43	115.312
2898.77	148.611
2899.12	111.686
2899.46	152.4
2899.81	76.6403
2900.16	134.17
2900.5	110.5
2900.85	107.531
2901.19	130.226
2901.54	113.628
2901.88	117.294
2902.23	107.074
2902.58	130.966
2902.92	103.259
2903.27	153.944
2903.61	101.125
2903.96	134.82
2904.31	108.089
2904.65	114.565
2905	137.163
2905.34	91.4291
2905.69	130.085
2906.03	80.1488
2906.38	134.927
2906.72	108.564
2907.07	142.913
2907.42	82.5018
2907.76	114.07
2908.11	119.363
2908.45	104.307
2908.8	140.942
2909.14	75.978
2909.49	135.3
2909.83	103.697
2910.18	141.719
2910.52	109.027
2910.87	132.8
2911.21	116.993
2911.56	121.623
2911.9	125.535
2912.25	119.218
2912.59	131.822
2912.94	92.9145
2913.28	126.54
2913.63	111.719
2913.97	127.184
2914.32	118.48
2914.66	110.21
2915.01	112.219
2915.35	117.729
2915.7	110.412
2916.04	124.148
2916.39	119.299
2916.73	103.765
2917.08	114.348
2917.42	113.394
2917.77	111.898
2918.11	137.038
2918.46	108.293
2918.8	117.99
2919.15	115.803
2919.49	124.689
2919.83	126.571
2920.18	107.008
2920.52	108
2920.87	111.881
2921.21	126.773
2921.56	132.345
2921.9	126.492
2922.24	101.865
2922.59	120.147
2922.93	110.115
2923.28	107.692
2923.62	116.061
2923.97	109.767
2924.31	117.467
2924.65	120.216
2925	103.231
2925.34	120.345
2925.69	120.578
2926.03	108.837
2926.38	134.514
2926.72	110.271
2927.06	108.688
2927.41	110.655
2927.75	127.914
2928.09	112.503
2928.44	134.007
2928.78	89.3055
2929.13	135.339
2929.47	129.808
2929.81	106.673
2930.16	142.926
2930.5	108.206
2930.79	125
2931.14	119
2931.49	143
2931.84	93
2932.19	165
2932.54	79
2932.88	145
2933.23	119
2933.58	99
2933.93	137
2934.28	105
2934.63	131
2934.97	79
2935.32	145
2935.67	89
2936.02	163
2936.37	75
2936.71	149
2937.06	107
2937.41	99
2937.76	147
2938.11	85
2938.46	149
2938.8	101
2939.15	165
2939.5	103
2939.85	153
2940.19	75
2940.54	141
2940.89	115
2941.24	113
2941.59	141
2941.93	95
2942.28	121
2942.63	97
2942.98	143
2943.32	105
2943.67	107
2944.02	77
2944.37	131
2944.72	129
2945.06	123
2945.41	141
2945.76	123
2946.11	125
2946.45	133
2946.8	105
2947.15	125
2947.49	107
2947.84	85
2948.19	131
2948.54	111
2948.88	143
2949.23	113
2949.58	99
2949.93	131
2950.27	107
2950.62	97
2950.97	131
2951.31	81
2951.66	113
2952.01	129
2952.35	131
2952.7	107
2953.05	115
2953.4	105
2953.74	109
2954.09	145
2954.44	91
2954.78	183
2955.13	85
2955.48	143
2955.82	125
2956.17	125
2956.52	125
2956.86	107
2957.21	115
2957.56	149
2957.9	141
2958.25	79
2958.6	183
2958.94	87
2959.29	143
2959.64	115
2959.98	139
2960.33	117
2960.68	95
2961.02	117
2961.37	127
2961.72	137
2962.06	81
2962.41	167
2962.76	65
2963.1	151
2963.45	91
2963.79	123
2964.14	119
2964.49	129
2964.83	113
2965.18	135
2965.52	125
2965.87	69
2966.22	149
2966.56	91
2966.91	157
2967.25	99
2967.6	137
2967.95	127
2968.29	121
2968.64	119
2968.98	129
2969.33	133
2969.68	95
2970.02	141
2970.37	73
2970.71	153
2971.06	103
2971.4	105
2971.75	155
2972.1	89
2972.44	109
2972.79	137
2973.13	117
2973.48	127
2973.82	119
2974.17	119
2974.51	117
2974.86	101
2975.21	113
2975.55	131
2975.9	95
2976.24	123
2976.59	137
2976.93	115
2977.28	143
2977.62	105
2977.97	139
2978.31	123
2978.66	103
2979	101
2979.35	123
2979.69	97
2980.04	111
2980.38	135
2980.73	95
2981.07	155
2981.42	83
2981.76	121
2982.11	109
2982.45	125
2982.8	81
2983.14	133
2983.49	83
2983.83	99
2984.18	133
2984.52	89
2984.87	159
2985.21	75
2985.56	145
2985.9	99
2986.25	139
2986.59	101
2986.94	149
2987.28	109
2987.62	113
2987.97	149
2988.31	99
2988.66	167
2989	53
2989.35	131
2989.69	115
2990.03	129
2990.38	103
2990.72	105
2991.07	105
2991.41	113
2991.76	143
2992.1	99
2992.44	153
2992.79	49
2993.13	151
2993.48	127
2993.82	147
2994.17	103
2994.51	133
2994.85	105
2995.2	137
2995.54	109
2995.89	97
2996.23	147
2996.57	77
2996.92	165
2997.26	105
2997.6	133
2997.95	117
2998.29	107
2998.64	99
2998.98	129
2999.32	131
2999.67	107
