#Acq. time (s)=	30
#Accumulations=	1
#Range (cm-¹)=	1050...3000 (30 s) 
#Windows=	6
#Auto scanning=	Off
#Autofocus=	Off
#AutoExposure=	Off
#Spike filter=	Off
#Delay time (s)=	0
#Binning=	1
#Readout mode=	Signal
#DeNoise=	Off
#ICS correction=	Off
#Dark correction=	Off
#Inst. Process=	Off
#Detector Gain=	High Sensitivity
#Detector ADC=	45 kHz       
#Detector temperature (°C)=	-60.1
#Instrument=	LabRAM
#Detector=	Syncerity
#Objective=	x50LWD
#Grating=	1800
#Filter=	25%
#Laser (nm)=	532
#Hole=	100
#E-Cal_Neon=	0
#StageXY=	Marzhauser
#StageZ=	Marzhauser
#X (µm)=	0
#Y (µm)=	0
#Z (µm)=	-1678.85
#Spectral res.(cm-¹)=	1.9
#Full time(mm:ss)=	3:09
#AC=	Not calibrated
#Project=	
#Sample=	
#Site=	
#Title=	Spot 2 400K REVERSE
#Remark=	
#Date=	19.02.2026 15:58
#Acquired=	19.02.2026 15:58:58
#Edit:Spike=	19.02.2026 16:02:11
#Edit:Spike=	19.02.2026 16:02:14
#AxisType[0]=Intens
#AxisUnit[0]=Cnt
#AxisType[1]=Spectr
#AxisUnit[1]=1/cm
1050.13	151
1050.59	51
1051.05	155
1051.51	109
1051.97	131
1052.44	109
1052.9	123
1053.36	125
1053.82	119
1054.28	133
1054.74	117
1055.2	147
1055.67	67
1056.13	143
1056.59	129
1057.05	135
1057.51	119
1057.97	105
1058.43	127
1058.89	131
1059.36	111
1059.82	143
1060.28	123
1060.74	103
1061.2	119
1061.66	135
1062.12	123
1062.58	155
1063.04	115
1063.5	115
1063.96	153
1064.43	79
1064.89	155
1065.35	83
1065.81	129
1066.27	131
1066.73	117
1067.19	151
1067.65	83
1068.11	139
1068.57	127
1069.03	149
1069.49	97
1069.95	171
1070.41	89
1070.87	133
1071.33	137
1071.79	137
1072.25	145
1072.71	79
1073.17	133
1073.63	119
1074.09	139
1074.55	103
1075.01	155
1075.47	115
1075.93	155
1076.39	117
1076.85	111
1077.31	151
1077.77	73
1078.23	159
1078.69	115
1079.15	123
1079.61	125
1080.07	107
1080.53	117
1080.99	131
1081.45	129
1081.91	121
1082.37	125
1082.83	95
1083.29	151
1083.75	131
1084.21	101
1084.66	123
1085.12	125
1085.58	122.5
1086.04	133.7
1086.5	141
1086.96	157
1087.42	77
1087.88	135
1088.34	123
1088.8	141
1089.25	107
1089.71	103
1090.17	117
1090.63	123
1091.09	143
1091.55	75
1092.01	179
1092.47	85
1092.92	149
1093.38	113
1093.84	125
1094.3	155
1094.76	77
1095.22	171
1095.68	109
1096.13	145
1096.59	99
1097.05	149
1097.51	83
1097.97	139
1098.43	117
1098.88	107
1099.34	153
1099.8	73
1100.26	135
1100.72	131
1101.17	129
1101.63	117
1102.09	107
1102.55	127
1103.01	135
1103.46	115
1103.92	129
1104.38	137
1104.84	83
1105.29	151
1105.75	123
1106.21	123
1106.67	129
1107.12	99
1107.58	123
1108.04	141
1108.5	97
1108.95	147
1109.41	111
1109.87	109
1110.33	129
1110.78	137
1111.24	129
1111.7	115
1112.16	117
1112.61	139
1113.07	153
1113.53	99
1113.98	163
1114.44	79
1114.9	147
1115.35	129
1115.81	147
1116.27	139
1116.72	83
1117.18	125
1117.64	131
1118.1	137
1118.55	67
1119.01	159
1119.47	97
1119.92	163
1120.38	123
1120.84	119
1121.29	149
1121.75	63
1122.2	157
1122.66	127
1123.12	147
1123.57	109
1124.03	125
1124.49	123
1124.94	151
1125.4	129
1125.86	127
1126.31	161
1126.77	81
1127.22	159
1127.68	125
1128.14	123
1128.59	131
1129.05	101
1129.5	127
1129.96	145
1130.41	113
1130.87	147
1131.33	95
1131.78	121
1132.24	123
1132.69	147
1133.15	113
1133.61	141
1134.06	105
1134.52	139
1134.97	157
1135.43	85
1135.88	165
1136.34	83
1136.79	151
1137.25	123
1137.7	151
1138.16	129
1138.61	111
1139.07	135
1139.52	109
1139.98	139
1140.43	61
1140.89	167
1141.34	95
1141.8	157
1142.25	121
1142.71	119
1143.16	149
1143.62	87
1144.07	137
1144.53	129
1144.98	135
1145.44	95
1145.89	123
1146.35	113
1146.8	147
1147.26	115
1147.71	121
1148.16	143
1148.62	105
1149.07	143
1149.53	127
1149.98	123
1150.44	135
1150.89	101
1151.35	117
1151.8	141
1152.25	109
1152.71	131
1153.16	119
1153.62	131
1154.07	135
1154.52	151
1154.98	93
1155.43	149
1155.89	93
1156.34	145
1156.79	143
1157.25	85
1157.7	155
1158.16	79
1158.61	133
1159.06	111
1159.52	149
1159.97	111
1160.42	137
1160.88	119
1161.33	135
1161.78	131
1162.24	87
1162.69	185
1163.14	69
1163.6	175
1164.05	97
1164.5	139
1164.96	139
1165.41	101
1165.86	105
1166.32	135
1166.77	157
1167.22	107
1167.68	139
1168.13	107
1168.58	149
1169.04	91
1169.49	111
1169.94	141
1170.39	83
1170.85	145
1171.3	125
1171.75	113
1172.2	125
1172.66	111
1173.11	121
1173.56	137
1174.01	95
1174.47	135
1174.92	145
1175.37	121
1175.82	117
1176.28	147
1176.73	93
1177.18	155
1177.63	83
1178.09	149
1178.54	143
1178.99	107
1179.44	169
1179.89	101
1180.35	139
1180.8	99
1181.25	163
1181.7	103
1182.15	153
1182.61	111
1183.06	135
1183.51	133
1183.96	83
1184.41	179
1184.87	85
1185.32	155
1185.77	103
1186.22	133
1186.67	131
1187.12	119
1187.58	105
1188.03	131
1188.48	143
1188.93	91
1189.38	157
1189.83	93
1190.28	161
1190.73	127
1191.19	131
1191.64	147
1192.09	85
1192.54	113
1192.99	125
1193.44	125
1193.89	115
1194.34	123
1194.8	113
1195.25	155
1195.7	97
1196.15	133
1196.6	151
1197.05	99
1197.5	121
1197.95	133
1198.4	127
1198.85	147
1199.3	103
1199.75	127
1200.2	145
1200.66	103
1201.11	149
1201.56	123
1202.01	113
1202.46	99
1202.91	149
1203.36	105
1203.81	155
1204.26	87
1204.71	155
1205.16	105
1205.61	99
1206.06	151
1206.51	99
1206.96	161
1207.41	115
1207.86	143
1208.31	101
1208.76	129
1209.21	105
1209.66	145
1210.11	123
1210.56	85
1211.01	169
1211.46	71
1211.91	173
1212.36	89
1212.81	143
1213.26	155
1213.71	111
1214.16	119
1214.61	149
1215.05	135
1215.51	125
1215.95	127
1216.4	105
1216.85	155
1217.3	115
1217.75	115
1218.2	141
1218.65	105
1219.1	125
1219.55	139
1220	109
1220.45	149
1220.9	89
1221.34	127
1221.79	117
1222.24	107
1222.69	113
1223.14	117
1223.59	109
1224.04	97
1224.49	151
1224.94	89
1225.38	185
1225.83	81
1226.28	151
1226.73	123
1227.18	117
1227.63	157
1228.07	91
1228.52	151
1228.97	103
1229.42	151
1229.87	99
1230.32	161
1230.76	93
1231.21	135
1231.66	119
1232.11	117
1232.56	163
1233.01	105
1233.45	139
1233.9	107
1234.35	143
1234.8	125
1235.25	111
1235.69	81
1236.14	157
1236.59	105
1237.04	129
1237.49	143
1237.93	93
1238.38	161
1238.83	121
1239.28	141
1239.72	137
1240.17	105
1240.62	109
1241.07	145
1241.51	121
1241.96	159
1242.41	117
1242.86	111
1243.3	123
1243.75	125
1244.2	135
1244.65	163
1245.09	119
1245.54	117
1245.99	155
1246.44	97
1246.88	169
1247.33	59
1247.78	139
1248.22	105
1248.67	133
1249.12	123
1249.56	123
1250.01	121
1250.46	115
1250.9	155
1251.35	123
1251.8	165
1252.24	61
1252.69	159
1253.14	113
1253.58	135
1254.03	141
1254.48	99
1254.92	141
1255.37	123
1255.82	133
1256.26	119
1256.71	169
1257.15	89
1257.6	147
1258.05	115
1258.49	137
1258.94	135
1259.39	91
1259.83	135
1260.28	133
1260.72	129
1261.17	151
1261.62	105
1262.06	105
1262.51	145
1262.95	129
1263.4	133
1263.85	127
1264.29	133
1264.74	127
1265.18	139
1265.63	107
1266.07	167
1266.52	99
1266.97	125
1267.41	157
1267.86	125
1268.3	173
1268.75	67
1269.19	143
1269.64	123
1270.08	133
1270.53	101
1270.97	129
1271.42	95
1271.86	111
1272.31	139
1272.76	101
1273.2	175
1273.64	81
1274.09	163
1274.53	113
1274.98	123
1275.42	113
1275.87	131
1276.31	121
1276.76	123
1277.2	145
1277.65	119
1278.09	143
1278.54	81
1278.98	153
1279.43	115
1279.87	139
1280.32	135
1280.76	111
1281.21	121
1281.65	127
1282.09	157
1282.54	123
1282.98	99
1283.43	93
1283.87	139
1284.32	127
1284.76	119
1285.21	125
1285.65	103
1286.09	127
1286.54	153
1286.98	95
1287.42	161
1287.87	87
1288.31	133
1288.76	151
1289.2	137
1289.64	133
1290.09	81
1290.53	131
1290.98	125
1291.42	157
1291.86	101
1292.31	195
1292.75	91
1293.19	147
1293.64	133
1294.08	95
1294.53	167
1294.97	73
1295.41	145
1295.85	109
1296.3	145
1296.74	117
1297.19	127
1297.63	117
1298.07	121
1298.51	153
1298.96	109
1299.4	159
1299.84	57
1300.29	151
1300.73	123
1301.17	133
1301.62	139
1302.06	107
1302.5	115
1302.94	149
1303.39	145
1303.83	143
1304.27	123
1304.72	93
1305.16	139
1305.6	125
1306.04	127
1306.49	117
1306.93	123
1307.37	131
1307.81	153
1308.26	111
1308.7	159
1309.14	109
1309.58	129
1310.03	137
1310.47	115
1310.91	137
1311.35	93
1311.8	137
1312.24	133
1312.68	137
1313.12	93
1313.56	171
1314	75
1314.45	135
1314.89	137
1315.33	121
1315.77	171
1316.22	77
1316.66	151
1317.1	121
1317.54	173
1317.98	93
1318.43	137
1318.87	101
1319.31	151
1319.75	137
1320.19	113
1320.63	155
1321.07	77
1321.51	153
1321.96	105
1322.4	141
1322.84	121
1323.28	111
1323.72	129
1324.16	155
1324.6	137
1325.05	147
1325.49	143
1325.93	95
1326.37	165
1326.81	147
1327.25	141
1327.69	135
1328.13	109
1328.57	147
1329.02	145
1329.45	107
1329.9	163
1330.34	95
1330.78	135
1331.22	135
1331.66	155
1332.1	139
1332.54	131
1332.98	123
1333.42	135
1333.86	169
1334.3	85
1334.74	191
1335.18	89
1335.62	167
1336.07	123
1336.5	153
1336.95	143
1337.39	103
1337.83	157
1338.27	127
1338.71	157
1339.15	77
1339.59	163
1340.03	101
1340.47	177
1340.91	139
1341.35	125
1341.79	173
1342.23	95
1342.67	173
1343.11	137
1343.55	143
1343.99	125
1344.43	139
1344.86	149
1345.31	147
1345.74	141
1346.18	131
1346.62	147
1347.06	95
1347.5	165
1347.94	143
1348.38	137
1348.82	137
1349.26	109
1349.7	143
1350.14	147
1350.58	123
1351.02	149
1351.46	107
1351.9	137
1352.33	125
1352.77	149
1353.21	111
1353.65	129
1354.09	125
1354.53	129
1354.97	143
1355.41	103
1355.85	171
1356.29	101
1356.72	149
1357.16	113
1357.6	159
1358.04	115
1358.48	129
1358.92	133
1359.36	137
1359.79	141
1360.23	79
1360.67	177
1361.11	91
1361.55	147
1361.99	95
1362.43	155
1362.87	145
1363.3	109
1363.74	127
1364.18	129
1364.62	159
1365.06	107
1365.49	145
1365.93	103
1366.37	155
1366.81	131
1367.25	143
1367.68	149
1368.12	97
1368.56	153
1369	145
1369.44	119
1369.87	121
1370.31	125
1370.75	145
1371.19	151
1371.62	131
1372.06	143
1372.5	127
1372.94	127
1373.37	133
1373.81	153
1374.25	101
1374.69	159
1375.12	105
1375.56	131
1376	127
1376.44	81
1376.87	167
1377.31	77
1377.75	161
1378.19	123
1378.62	149
1379.06	121
1379.5	141
1379.93	119
1380.37	123
1380.81	161
1381.25	99
1381.68	175
1382.12	79
1382.56	151
1382.99	109
1383.43	141
1383.87	139
1384.3	103
1384.74	121
1385.18	115
1385.61	143
1386.05	99
1386.49	139
1386.92	103
1387.36	173
1387.8	107
1388.23	113
1388.67	127
1389.1	91
1389.54	125
1389.98	123
1390.41	105
1390.85	113
1391.29	121
1391.72	131
1392.16	135
1392.59	85
1393.03	135
1393.47	129
1393.9	127
1394.34	113
1394.77	149
1395.21	115
1395.65	159
1396.08	105
1396.52	113
1396.95	147
1397.39	93
1397.82	133
1398.26	81
1398.7	141
1399.13	123
1399.57	137
1400	117
1400.44	129
1400.87	109
1401.31	123
1401.74	145
1402.18	107
1402.62	155
1403.05	83
1403.49	159
1403.92	121
1404.36	145
1404.79	125
1405.23	127
1405.66	121
1406.1	149
1406.53	141
1406.97	75
1407.4	167
1407.84	87
1408.27	165
1408.71	107
1409.14	121
1409.58	151
1410.01	91
1410.45	137
1410.88	121
1411.31	123
1411.75	125
1412.18	117
1412.62	115
1413.05	147
1413.49	113
1413.92	139
1414.36	183
1414.79	117
1415.23	115
1415.66	127
1416.1	107
1416.53	153
1416.96	93
1417.4	147
1417.83	137
1418.27	97
1418.7	161
1419.13	117
1419.57	135
1420	117
1420.44	145
1420.87	89
1421.3	155
1421.74	83
1422.17	155
1422.61	137
1423.04	81
1423.47	167
1423.91	65
1424.34	149
1424.77	89
1425.21	137
1425.64	113
1426.07	133
1426.51	121
1426.94	123
1427.38	133
1427.81	83
1428.24	173
1428.68	105
1429.11	157
1429.54	97
1429.98	139
1430.41	149
1430.84	137
1431.28	119
1431.71	157
1432.14	121
1432.57	113
1433.01	115
1433.44	119
1433.87	155
1434.31	129
1434.74	135
1435.17	139
1435.61	115
1436.04	115
1436.47	143
1436.9	85
1437.34	133
1437.77	85
1438.2	125
1438.63	127
1439.07	117
1439.5	137
1439.93	127
1440.36	109
1440.8	115
1441.23	125
1441.66	97
1442.09	187
1442.53	87
1442.96	147
1443.39	127
1443.82	105
1444.26	143
1444.69	117
1445.12	151
1445.55	113
1445.98	147
1446.42	93
1446.85	151
1447.28	65
1447.71	149
1448.14	111
1448.57	103
1449.01	149
1449.44	79
1449.87	141
1450.3	87
1450.73	147
1451.17	127
1451.6	119
1452.03	93
1452.46	135
1452.89	135
1453.32	125
1453.76	147
1454.19	109
1454.62	147
1455.05	117
1455.48	119
1455.91	129
1456.34	109
1456.77	109
1457.21	125
1457.64	123
1458.07	153
1458.5	99.0686
1458.93	114.565
1459.36	103.435
1459.79	117.04
1460.22	111.332
1460.65	132.86
1461.08	96.751
1461.52	116.168
1461.95	133.654
1462.38	107.772
1462.81	161.585
1463.24	73.4738
1463.67	144.868
1464.1	112.568
1464.53	132.806
1464.96	142.771
1465.39	122.947
1465.82	142.644
1466.25	101.055
1466.68	151.981
1467.11	111.508
1467.54	148.566
1467.98	89.1545
1468.41	137.825
1468.84	129.242
1469.27	108.504
1469.7	149.895
1470.13	94.8526
1470.56	145.112
1470.99	94.3022
1471.42	117.507
1471.85	115.051
1472.28	114.089
1472.71	110.261
1473.14	119.577
1473.57	129.272
1474	116.768
1474.43	142.913
1474.86	95.1419
1475.29	139.314
1475.72	105.927
1476.15	118.384
1476.58	133.041
1477.01	121.624
1477.44	138.109
1477.87	114.892
1478.3	136.559
1478.72	127.349
1479.15	137.333
1479.58	121.118
1480.01	132.147
1480.44	117.787
1480.87	99.2282
1481.3	135.559
1481.73	104.712
1482.16	142.252
1482.59	110.374
1483.02	132.995
1483.45	136.729
1483.88	94.4177
1484.31	128.545
1484.74	113.997
1485.17	129.014
1485.59	125.345
1486.02	131.026
1486.45	119.312
1486.88	107.349
1487.31	113.897
1487.74	123.63
1488.17	144.441
1488.6	105.026
1489.02	135.219
1489.45	118.52
1489.88	122.267
1490.31	138.183
1490.74	117.683
1491.17	148.646
1491.6	117.995
1492.03	113.594
1492.45	117.341
1492.88	131.024
1493.31	134.491
1493.74	123.943
1494.17	116.779
1494.6	112.315
1495.02	142.833
1495.45	125.648
1495.88	143.998
1496.31	112.841
1496.74	110.99
1497.17	139.552
1497.59	119.088
1498.02	128.629
1498.45	104.011
1498.88	100.945
1499.31	132.472
1499.73	129.876
1500.16	116.871
1500.59	116.532
1501.02	132.096
1501.45	124.336
1501.87	138.954
1502.13	133
1502.56	105
1502.99	155
1503.43	57
1503.86	161
1504.29	139
1504.72	129
1505.16	111
1505.59	125
1506.02	133
1506.46	157
1506.89	121
1507.32	143
1507.75	141
1508.19	107
1508.62	115
1509.05	125
1509.49	143
1509.92	121
1510.35	103
1510.78	121
1511.21	121
1511.65	91
1512.08	141
1512.51	101
1512.94	129
1513.38	135
1513.81	141
1514.24	107
1514.67	115
1515.11	115
1515.54	141
1515.97	163
1516.4	111
1516.83	179
1517.27	91
1517.7	157
1518.13	125
1518.56	149
1518.99	139
1519.42	127
1519.86	133
1520.29	143
1520.72	139
1521.15	71
1521.58	179
1522.01	95
1522.45	155
1522.88	131
1523.31	149
1523.74	151
1524.17	91
1524.6	125
1525.04	123
1525.47	153
1525.9	105
1526.33	137
1526.76	111
1527.19	145
1527.62	115
1528.05	131
1528.49	167
1528.92	111
1529.35	137
1529.78	141
1530.21	127
1530.64	145
1531.07	121
1531.5	139
1531.93	137
1532.37	115
1532.8	129
1533.23	151
1533.66	133
1534.09	131
1534.52	141
1534.95	105
1535.38	159
1535.81	115
1536.24	155
1536.67	135
1537.1	79
1537.53	167
1537.96	103
1538.39	145
1538.82	105
1539.26	123
1539.68	115
1540.12	123
1540.55	127
1540.98	135
1541.41	143
1541.84	93
1542.27	185
1542.7	85
1543.13	147
1543.56	113
1543.99	137
1544.42	135
1544.85	131
1545.28	129
1545.71	141
1546.14	159
1546.57	95
1547	165
1547.43	103
1547.86	151
1548.29	131
1548.72	133
1549.14	157
1549.57	111
1550.01	143
1550.43	131
1550.86	133
1551.29	113
1551.72	133
1552.15	123
1552.58	161
1553.01	109
1553.44	115
1553.87	161
1554.3	119
1554.73	135
1555.16	151
1555.59	135
1556.01	161
1556.44	103
1556.87	153
1557.3	157
1557.73	125
1558.16	131
1558.59	131
1559.02	125
1559.45	133
1559.88	163
1560.3	111
1560.73	179
1561.16	103
1561.59	173
1562.02	149
1562.45	105
1562.88	183
1563.31	89
1563.73	167
1564.16	123
1564.59	157
1565.02	107
1565.45	133
1565.88	131
1566.3	181
1566.73	167
1567.16	101
1567.59	179
1568.02	77
1568.45	169
1568.88	121
1569.3	147
1569.73	179
1570.16	139
1570.59	153
1571.01	147
1571.44	163
1571.87	123
1572.3	169
1572.73	125
1573.15	177
1573.58	143
1574.01	145
1574.44	183
1574.87	121
1575.29	133
1575.72	163
1576.15	153
1576.58	173
1577	141
1577.43	165
1577.86	175
1578.29	155
1578.71	181
1579.14	177
1579.57	145
1580	155
1580.42	201
1580.85	163
1581.28	233
1581.71	159
1582.13	199
1582.56	205
1582.99	197
1583.41	215
1583.84	163
1584.27	205
1584.7	221
1585.12	235
1585.55	193
1585.98	259
1586.4	191
1586.83	271
1587.26	231
1587.68	241
1588.11	295
1588.54	261
1588.96	295
1589.39	255
1589.82	313
1590.24	285
1590.67	327
1591.1	277
1591.52	329
1591.95	341
1592.38	319
1592.8	357
1593.23	293
1593.65	321
1594.08	279
1594.51	337
1594.93	305
1595.36	287
1595.79	263
1596.21	297
1596.64	271
1597.06	267
1597.49	249
1597.92	241
1598.34	229
1598.77	223
1599.19	173
1599.62	263
1600.05	169
1600.47	183
1600.9	189
1601.32	175
1601.75	235
1602.18	131
1602.6	193
1603.03	155
1603.45	187
1603.88	153
1604.3	163
1604.73	145
1605.15	133
1605.58	183
1606	135
1606.43	197
1606.86	83
1607.28	179
1607.71	151
1608.13	169
1608.56	149
1608.98	111
1609.41	145
1609.83	123
1610.26	153
1610.68	137
1611.11	147
1611.53	115
1611.96	167
1612.38	141
1612.81	135
1613.23	151
1613.66	117
1614.08	147
1614.51	153
1614.93	143
1615.36	151
1615.78	137
1616.21	103
1616.63	175
1617.06	129
1617.48	145
1617.9	135
1618.33	121
1618.75	147
1619.18	171
1619.6	121
1620.03	173
1620.45	103
1620.88	145
1621.3	139
1621.72	131
1622.15	147
1622.57	87
1623	133
1623.42	103
1623.85	145
1624.27	91
1624.69	159
1625.12	79
1625.54	153
1625.97	145
1626.39	123
1626.81	171
1627.24	79
1627.66	171
1628.08	129
1628.51	161
1628.93	115
1629.36	139
1629.78	113
1630.2	139
1630.63	143
1631.05	109
1631.47	165
1631.9	63
1632.32	155
1632.74	133
1633.17	127
1633.59	143
1634.01	127
1634.44	139
1634.86	127
1635.28	137
1635.71	119
1636.13	141
1636.55	93
1636.98	145
1637.4	137
1637.82	117
1638.25	135
1638.67	89
1639.09	129
1639.51	149
1639.94	127
1640.36	161
1640.78	95
1641.21	131
1641.63	135
1642.05	127
1642.47	125
1642.9	99
1643.32	127
1643.74	139
1644.17	165
1644.59	83
1645.01	171
1645.43	89
1645.86	147
1646.28	123
1646.7	123
1647.12	145
1647.55	77
1647.97	135
1648.39	117
1648.81	145
1649.23	89
1649.66	169
1650.08	89
1650.5	155
1650.92	129
1651.35	119
1651.77	151
1652.19	81
1652.61	151
1653.03	121
1653.45	163
1653.88	85
1654.3	135
1654.72	97
1655.14	167
1655.56	121
1655.99	117
1656.41	139
1656.83	101
1657.25	157
1657.67	113
1658.09	139
1658.52	107
1658.94	111
1659.36	103
1659.78	127
1660.2	103
1660.62	125
1661.04	121
1661.47	103
1661.89	137
1662.31	133
1662.73	123
1663.15	135
1663.57	99
1663.99	139
1664.41	145
1664.83	97
1665.26	151
1665.68	89
1666.1	143
1666.52	111
1666.94	153
1667.36	129
1667.78	115
1668.2	103
1668.62	121
1669.04	155
1669.46	95
1669.89	171
1670.31	59
1670.73	155
1671.15	113
1671.57	111
1671.99	123
1672.41	79
1672.83	121
1673.25	129
1673.67	145
1674.09	87
1674.51	151
1674.93	95
1675.35	151
1675.77	107
1676.19	113
1676.61	145
1677.03	71
1677.45	143
1677.87	127
1678.29	131
1678.71	119
1679.13	123
1679.55	97
1679.97	141
1680.39	109
1680.81	119
1681.23	119
1681.65	111
1682.07	143
1682.49	139
1682.91	97
1683.33	117
1683.75	87
1684.17	111
1684.59	147
1685.01	87
1685.43	139
1685.85	111
1686.27	119
1686.69	133
1687.11	151
1687.53	107
1687.95	149
1688.37	97
1688.78	135
1689.2	137
1689.62	79
1690.04	167
1690.46	105
1690.88	151
1691.3	111
1691.72	127
1692.14	103
1692.56	135
1692.98	89
1693.39	125
1693.81	113
1694.23	79
1694.65	175
1695.07	69
1695.49	149
1695.91	81
1696.33	133
1696.75	121
1697.16	113
1697.58	119
1698	121
1698.42	131
1698.84	95
1699.26	153
1699.68	79
1700.09	153
1700.51	93
1700.93	133
1701.35	133
1701.77	89
1702.19	113
1702.6	123
1703.02	113
1703.44	117
1703.86	101
1704.28	111
1704.69	147
1705.11	107
1705.53	107
1705.95	133
1706.37	107
1706.78	93
1707.2	141
1707.62	83
1708.04	147
1708.46	73
1708.87	137
1709.29	131
1709.71	117
1710.13	129
1710.54	101
1710.96	141
1711.38	83
1711.8	155
1712.22	105
1712.63	189
1713.05	99
1713.47	143
1713.89	143
1714.3	99
1714.72	155
1715.14	69
1715.56	129
1715.97	97
1716.39	147
1716.81	105
1717.22	123
1717.64	83
1718.06	135
1718.48	129
1718.89	87
1719.31	167
1719.73	89
1720.14	143
1720.56	103
1720.98	133
1721.39	147
1721.81	111
1722.23	115
1722.64	145
1723.06	129
1723.48	97
1723.89	153
1724.31	99
1724.73	145
1725.14	105
1725.56	115
1725.98	151
1726.39	89
1726.81	131
1727.23	131
1727.64	121
1728.06	147
1728.48	123
1728.89	117
1729.31	137
1729.72	93
1730.14	127
1730.56	133
1730.97	107
1731.39	113
1731.8	131
1732.22	103
1732.64	149
1733.05	81
1733.47	125
1733.89	127
1734.3	121
1734.72	145
1735.13	109
1735.55	133
1735.96	95
1736.38	139
1736.8	89
1737.21	163
1737.63	53
1738.04	139
1738.46	117
1738.87	103
1739.29	161
1739.71	79
1740.12	149
1740.54	87
1740.95	143
1741.37	99
1741.78	133
1742.2	91
1742.61	127
1743.03	133
1743.44	83
1743.86	159
1744.27	83
1744.69	137
1745.1	97
1745.52	115
1745.93	119
1746.35	113
1746.77	97
1747.18	147
1747.59	115
1748.01	141
1748.42	123
1748.84	113
1749.25	135
1749.67	101
1750.08	107
1750.5	145
1750.91	103
1751.33	107
1751.74	147
1752.16	103
1752.57	159
1752.99	89
1753.4	141
1753.81	101
1754.23	123
1754.64	129
1755.06	135
1755.47	105
1755.89	99
1756.3	127
1756.72	105
1757.13	169
1757.54	71
1757.96	157
1758.37	123
1758.78	143
1759.2	139
1759.61	121
1760.03	109
1760.44	121
1760.86	139
1761.27	103
1761.68	167
1762.1	63
1762.51	143
1762.92	99
1763.34	107
1763.75	143
1764.17	93
1764.58	135
1764.99	109
1765.41	131
1765.82	111
1766.23	125
1766.65	69
1767.06	127
1767.47	107
1767.89	113
1768.3	147
1768.71	87
1769.13	139
1769.54	101
1769.95	107
1770.37	137
1770.78	85
1771.19	133
1771.61	125
1772.02	101
1772.43	131
1772.85	107
1773.26	113
1773.67	117
1774.09	153
1774.5	97
1774.91	155
1775.32	69
1775.74	107
1776.15	125
1776.56	109
1776.97	167
1777.39	59
1777.8	147
1778.21	117
1778.62	137
1779.04	93
1779.45	121
1779.86	91
1780.28	109
1780.69	119
1781.1	95
1781.51	163
1781.92	51
1782.34	153
1782.75	123
1783.16	123
1783.57	129
1783.99	113
1784.4	113
1784.81	127
1785.22	131
1785.63	109
1786.05	145
1786.46	63
1786.87	141
1787.28	113
1787.69	141
1788.11	129
1788.52	93
1788.93	105
1789.34	123
1789.75	107
1790.17	117
1790.58	113
1790.99	89
1791.4	125
1791.81	101
1792.22	121
1792.63	119
1793.05	109
1793.46	119
1793.87	137
1794.28	113
1794.69	163
1795.1	79
1795.52	129
1795.93	133
1796.34	125
1796.75	139
1797.16	77
1797.57	135
1797.98	95
1798.39	129
1798.81	83
1799.22	143
1799.63	65
1800.04	119
1800.45	99
1800.86	111
1801.27	149
1801.68	49
1802.09	145
1802.5	89
1802.91	149
1803.32	95
1803.73	137
1804.15	103
1804.56	117
1804.97	107
1805.38	99
1805.79	167
1806.2	45
1806.61	151
1807.02	103
1807.43	155
1807.84	113
1808.25	101
1808.66	117
1809.07	113
1809.48	125
1809.89	97
1810.3	103
1810.71	81
1811.12	137
1811.53	111
1811.94	117
1812.35	129
1812.76	89
1813.17	117
1813.58	119
1813.99	83
1814.4	171
1814.81	95
1815.22	123
1815.63	131
1816.04	125
1816.45	133
1816.86	105
1817.27	103
1817.68	99
1818.09	139
1818.5	81
1818.91	175
1819.32	79
1819.73	143
1820.14	119
1820.55	113
1820.96	129
1821.37	71
1821.78	135
1822.19	107
1822.6	139
1823.01	65
1823.42	145
1823.82	97
1824.23	141
1824.64	123
1825.05	103
1825.46	145
1825.87	63
1826.28	131
1826.69	119
1827.1	137
1827.51	89
1827.91	125
1828.32	113
1828.73	157
1829.14	99
1829.55	123
1829.96	143
1830.37	79
1830.78	157
1831.18	111
1831.59	135
1832	105
1832.41	97
1832.82	115
1833.23	127
1833.64	109
1834.05	111.8
1834.45	97
1834.86	111
1835.27	131
1835.68	123
1836.09	97
1836.49	115
1836.9	85
1837.31	137
1837.72	135
1838.13	67
1838.53	161
1838.94	65
1839.35	145
1839.76	111
1840.17	135
1840.58	125
1840.98	99
1841.39	105
1841.8	135
1842.21	155
1842.61	73
1843.02	157
1843.43	77
1843.84	143
1844.25	85
1844.65	131
1845.06	131
1845.47	93
1845.88	123
1846.28	124.912
1846.69	123.002
1847.1	74.157
1847.51	131.927
1847.91	84.9663
1848.32	135.378
1848.73	105.945
1849.14	119.894
1849.54	142.335
1849.95	101.059
1850.36	126.906
1850.77	136.444
1851.17	109.651
1851.58	129.451
1851.99	100.516
1852.39	112.294
1852.8	138.023
1853.21	101.237
1853.62	126.003
1854.02	117.222
1854.43	111.234
1854.84	122.164
1855.24	133.785
1855.65	92.6495
1856.06	128.162
1856.46	83.2652
1856.87	124.319
1857.28	114.827
1857.68	104.65
1858.09	143.554
1858.5	103.351
1858.9	115.927
1859.31	110.817
1859.72	127.886
1860.12	107.356
1860.53	138.048
1860.94	86.2871
1861.34	146.146
1861.75	114.713
1862.15	100.626
1862.56	138.791
1862.97	86.9154
1863.37	137.356
1863.78	104.038
1864.19	129.438
1864.59	132.93
1865	116.445
1865.4	100.687
1865.81	133.968
1866.22	113.285
1866.62	100.16
1867.03	122.824
1867.43	84.5872
1867.84	136.009
1868.25	115.232
1868.65	110.731
1869.06	134.039
1869.46	101.399
1869.87	103.859
1870.28	126.8
1870.68	118.287
1871.09	115.891
1871.49	108.835
1871.9	102.136
1872.3	132.832
1872.71	121.6
1873.12	92.2627
1873.52	126.452
1873.93	98.5263
1874.33	112.57
1874.74	131.903
1875.14	106.958
1875.55	132.005
1875.95	97.4487
1876.36	108.15
1876.76	114.1
1877.17	124.495
1877.57	112.811
1877.98	114.217
1878.38	120.708
1878.79	109.122
1879.19	130.578
1879.6	104.558
1880	132.784
1880.41	106.374
1880.81	102.151
1881.22	132.388
1881.63	120.433
1882.03	120.438
1882.43	106.463
1882.84	101.404
1883.24	109.618
1883.65	122.284
1884.05	102.59
1884.46	112.422
1884.86	99.5174
1885.27	96.5838
1885.67	130.071
1886.08	109.463
1886.48	116.967
1886.89	99.4916
1887.29	94.0513
1887.69	110.316
1888.1	115.671
1888.5	102.435
1888.85	121
1889.26	121
1889.67	111
1890.08	127
1890.49	127
1890.9	111
1891.3	111
1891.71	91
1892.12	115
1892.53	135
1892.94	99
1893.35	153
1893.76	83
1894.17	125
1894.58	109
1894.99	119
1895.4	123
1895.81	87
1896.22	99
1896.62	109
1897.03	137
1897.44	71
1897.85	167
1898.26	63
1898.67	155
1899.08	115
1899.49	137
1899.9	117
1900.3	57
1900.71	133
1901.12	105
1901.53	133
1901.94	77
1902.35	145
1902.75	75
1903.16	149
1903.57	125
1903.98	121
1904.39	137
1904.8	69
1905.21	137
1905.61	111
1906.02	129
1906.43	111
1906.84	119
1907.25	91
1907.66	163
1908.06	115
1908.47	107
1908.88	137
1909.29	91
1909.7	125
1910.1	141
1910.51	123
1910.92	119
1911.33	95
1911.73	107
1912.14	137
1912.55	103
1912.96	137
1913.37	109
1913.77	123
1914.18	123
1914.59	141
1915	129
1915.4	131
1915.81	99
1916.22	123
1916.63	137
1917.03	77
1917.44	153
1917.85	89
1918.26	135
1918.66	119
1919.07	141
1919.48	89
1919.89	135
1920.29	81
1920.7	137
1921.11	123
1921.51	63
1921.92	165
1922.33	59
1922.73	143
1923.14	95
1923.55	139
1923.96	103
1924.36	123
1924.77	99
1925.18	107
1925.58	129
1925.99	75
1926.4	161
1926.8	69
1927.21	151
1927.62	85
1928.02	141
1928.43	133
1928.84	89
1929.24	113
1929.65	121
1930.06	125
1930.46	101
1930.87	139
1931.28	85
1931.68	127
1932.09	99
1932.49	109
1932.9	135
1933.31	107
1933.71	115
1934.12	105
1934.53	89
1934.93	133
1935.34	91
1935.74	113
1936.15	121
1936.56	89
1936.96	109
1937.37	153
1937.78	127
1938.18	101
1938.59	147
1938.99	85
1939.4	167
1939.8	73
1940.21	143
1940.62	121
1941.02	117
1941.43	139
1941.83	121
1942.24	109
1942.64	95
1943.05	147
1943.45	93
1943.86	155
1944.27	65
1944.67	149
1945.08	117
1945.48	101
1945.89	141
1946.29	107
1946.7	117
1947.1	93
1947.51	139
1947.91	109
1948.32	141
1948.72	81
1949.13	141
1949.53	121
1949.94	125
1950.34	151
1950.75	83
1951.15	151
1951.56	89
1951.96	125
1952.37	127
1952.77	113
1953.18	91
1953.58	129
1953.99	121
1954.39	123
1954.8	139
1955.2	99
1955.61	119
1956.01	109
1956.42	99
1956.82	131
1957.23	89
1957.63	107
1958.03	125
1958.44	103
1958.84	121
1959.25	85
1959.65	121
1960.06	115
1960.46	139
1960.86	113
1961.27	141
1961.67	105
1962.08	107
1962.48	149
1962.89	91
1963.29	157
1963.69	83
1964.1	137
1964.5	103
1964.91	147
1965.31	115
1965.71	127
1966.12	99
1966.52	111
1966.93	137
1967.33	105
1967.73	153
1968.14	43
1968.54	137
1968.94	137
1969.35	131
1969.75	123
1970.15	89
1970.56	101
1970.96	109
1971.37	129
1971.77	101
1972.17	149
1972.58	49
1972.98	149
1973.38	119
1973.79	133
1974.19	139
1974.59	109
1974.99	123
1975.4	97
1975.8	115
1976.21	115
1976.61	125
1977.01	91
1977.41	155
1977.82	111
1978.22	97
1978.62	127
1979.03	111
1979.43	131
1979.83	109
1980.24	99
1980.64	131
1981.04	97
1981.44	123
1981.85	127
1982.25	111
1982.65	123
1983.05	119
1983.46	117
1983.86	123
1984.26	149
1984.66	115
1985.07	153
1985.47	53
1985.87	121
1986.27	135
1986.68	97
1987.08	127
1987.48	57
1987.88	155
1988.29	107
1988.69	153
1989.09	89
1989.49	145
1989.89	89
1990.3	117
1990.7	119
1991.1	85
1991.5	171
1991.9	37
1992.31	129
1992.71	109
1993.11	123
1993.51	103
1993.91	115
1994.32	107
1994.72	105
1995.12	145
1995.52	123
1995.92	173
1996.32	73
1996.73	151
1997.13	129
1997.53	131
1997.93	119
1998.33	97
1998.73	117
1999.14	129
1999.54	139
1999.94	117
2000.34	129
2000.74	71
2001.14	139
2001.54	103
2001.94	113
2002.35	129
2002.75	105
2003.15	113
2003.55	129
2003.95	111
2004.35	133
2004.75	91
2005.15	117
2005.55	121
2005.96	119
2006.36	125
2006.76	117
2007.16	125
2007.56	131
2007.96	127
2008.36	83
2008.76	155
2009.16	79
2009.56	131
2009.96	125
2010.36	133
2010.76	127
2011.16	95
2011.57	113
2011.97	113
2012.37	165
2012.77	69
2013.17	167
2013.57	53
2013.97	139
2014.37	123
2014.77	137
2015.17	139
2015.57	59
2015.97	137
2016.37	119
2016.77	149
2017.17	89
2017.57	141
2017.97	85
2018.37	149
2018.77	121
2019.17	101
2019.57	141
2019.97	65
2020.37	147
2020.77	125
2021.17	143
2021.57	105
2021.97	127
2022.37	121
2022.77	129
2023.17	113
2023.57	113
2023.97	137
2024.37	95
2024.77	127
2025.17	139
2025.57	105
2025.97	135
2026.37	93
2026.77	101
2027.16	147
2027.56	83
2027.96	145
2028.36	127
2028.76	115
2029.16	115
2029.56	139
2029.96	101
2030.36	131
2030.76	105
2031.16	125
2031.56	133
2031.96	83
2032.35	137
2032.75	95
2033.15	123
2033.55	115
2033.95	141
2034.35	111
2034.75	121
2035.15	103
2035.54	119
2035.94	135
2036.34	77
2036.74	173
2037.14	75
2037.54	145
2037.94	81
2038.34	145
2038.74	115
2039.13	123
2039.53	89
2039.93	139
2040.33	147
2040.73	81
2041.12	175
2041.52	69
2041.92	153
2042.32	95
2042.72	141
2043.12	149
2043.51	97
2043.91	121
2044.31	113
2044.71	135
2045.11	85
2045.51	143
2045.9	91
2046.3	149
2046.7	101
2047.1	111
2047.49	129
2047.89	95
2048.29	123
2048.69	119
2049.09	107
2049.48	129
2049.88	105
2050.28	117
2050.68	135
2051.07	105
2051.47	123
2051.87	127
2052.27	119
2052.67	113
2053.06	137
2053.46	87
2053.86	151
2054.26	95
2054.65	141
2055.05	137
2055.45	87
2055.85	123
2056.24	105
2056.64	123
2057.04	113
2057.43	133
2057.83	93
2058.23	145
2058.62	79
2059.02	127
2059.42	111
2059.82	93
2060.21	145
2060.61	99
2061.01	151
2061.4	89
2061.8	137
2062.2	91
2062.59	141
2062.99	71
2063.39	137
2063.79	131
2064.18	71
2064.58	159
2064.97	77
2065.37	157
2065.77	77
2066.16	145
2066.56	125
2066.96	105
2067.35	109
2067.75	127
2068.15	133
2068.54	95
2068.94	151
2069.34	67
2069.73	157
2070.13	95
2070.52	115
2070.92	147
2071.32	93
2071.71	127
2072.11	141
2072.51	125
2072.9	107
2073.3	115
2073.69	119
2074.09	137
2074.49	97
2074.88	105
2075.28	147
2075.67	95
2076.07	99
2076.47	145
2076.86	85
2077.26	147
2077.65	97
2078.05	119
2078.44	101
2078.84	107
2079.23	121
2079.63	123
2080.03	115
2080.42	95
2080.82	149
2081.21	101
2081.61	161
2082	83
2082.4	135
2082.79	111
2083.19	117
2083.58	131
2083.98	115
2084.37	117
2084.77	93
2085.16	129
2085.56	101
2085.95	171
2086.35	85
2086.74	163
2087.14	105
2087.53	129
2087.93	165
2088.32	91
2088.72	125
2089.11	75
2089.51	141
2089.9	107
2090.3	127
2090.69	75
2091.09	151
2091.48	103
2091.88	129
2092.27	149
2092.67	75
2093.06	137
2093.46	97
2093.85	125
2094.25	145
2094.64	123
2095.03	85
2095.43	137
2095.82	145
2096.22	119
2096.61	119
2097.01	105
2097.4	129
2097.79	121
2098.19	95
2098.58	165
2098.98	77
2099.37	113
2099.76	133
2100.16	109
2100.55	149
2100.95	79
2101.34	115
2101.73	107
2102.13	159
2102.52	101
2102.92	141
2103.31	87
2103.7	125
2104.1	133
2104.49	91
2104.88	171
2105.28	41
2105.67	151
2106.07	121
2106.46	137
2106.85	99
2107.25	137
2107.64	95
2108.03	115
2108.43	123
2108.82	119
2109.21	159
2109.61	51
2110	149
2110.39	109
2110.79	133
2111.18	105
2111.57	109
2111.97	115
2112.36	133
2112.75	129
2113.15	97
2113.54	125
2113.93	75
2114.32	139
2114.72	103
2115.11	113
2115.5	117
2115.9	83
2116.29	123
2116.68	137
2117.08	89
2117.47	121
2117.86	101
2118.25	115
2118.65	127
2119.04	105
2119.43	107
2119.82	129
2120.22	97
2120.61	133
2121	127
2121.39	85
2121.79	165
2122.18	75
2122.57	129
2122.96	105
2123.36	117
2123.75	103
2124.14	101
2124.53	109
2124.93	121
2125.32	145
2125.71	81
2126.1	167
2126.49	79
2126.89	145
2127.28	109
2127.67	109
2128.06	133
2128.45	81
2128.85	135
2129.24	113
2129.63	147
2130.02	97
2130.41	135
2130.81	85
2131.2	147
2131.59	109
2131.98	115
2132.37	129
2132.76	79
2133.16	131
2133.55	113
2133.94	111
2134.33	93
2134.72	123
2135.11	113
2135.5	133
2135.9	99
2136.29	123
2136.68	143
2137.07	79
2137.46	121
2137.85	121
2138.24	119
2138.63	123
2139.03	103
2139.42	119
2139.81	137
2140.2	103
2140.59	129
2140.98	115
2141.37	113
2141.76	125
2142.15	139
2142.55	93
2142.94	127
2143.33	95
2143.72	111
2144.11	131
2144.5	71
2144.89	127
2145.28	81
2145.67	121
2146.06	105
2146.45	141
2146.84	91
2147.23	133
2147.62	109
2148.02	135
2148.4	127
2148.8	69
2149.19	157
2149.58	73
2149.97	143
2150.36	87
2150.75	121
2151.14	109
2151.53	91
2151.92	103
2152.31	113
2152.7	127
2153.09	63
2153.48	151
2153.87	69
2154.26	161
2154.65	103
2155.04	121
2155.43	119
2155.82	83
2156.21	123
2156.6	113
2156.99	135
2157.38	89
2157.77	137
2158.16	97
2158.55	131
2158.94	81
2159.33	115
2159.72	145
2160.11	85
2160.5	107
2160.89	145
2161.28	99
2161.66	115
2162.05	105
2162.44	101
2162.83	137
2163.22	95
2163.61	121
2164	125
2164.39	113
2164.78	111
2165.17	137
2165.56	89
2165.95	139
2166.34	87
2166.73	129
2167.11	121
2167.5	93
2167.89	133
2168.28	101
2168.67	117
2169.06	105
2169.45	145
2169.84	81
2170.23	149
2170.62	67
2171	135
2171.39	133
2171.78	91
2172.17	131
2172.56	85
2172.95	145
2173.34	71
2173.73	155
2174.11	105
2174.5	163
2174.89	93
2175.28	133
2175.67	115
2176.06	87
2176.45	159
2176.83	93
2177.22	151
2177.61	87
2178	127
2178.39	101
2178.78	129
2179.16	97
2179.55	131
2179.94	105
2180.33	111
2180.72	143
2181.1	99
2181.49	123
2181.88	105
2182.27	105
2182.66	139
2183.04	91
2183.43	81
2183.82	121
2184.21	113
2184.6	131
2184.98	97
2185.37	111
2185.76	129
2186.15	113
2186.53	95
2186.92	141
2187.31	85
2187.7	109
2188.08	119
2188.47	93
2188.86	133
2189.25	79
2189.63	127
2190.02	117
2190.41	131
2190.8	111
2191.18	123
2191.57	115
2191.96	99
2192.34	129
2192.73	113
2193.12	153
2193.51	67
2193.89	139
2194.28	115
2194.67	137
2195.06	113
2195.44	107
2195.83	109
2196.22	113
2196.6	125
2196.99	79
2197.38	159
2197.76	59
2198.15	149
2198.54	93
2198.92	115
2199.31	127
2199.7	85
2200.08	127
2200.47	117
2200.86	129
2201.24	103
2201.63	139
2202.02	75
2202.4	139
2202.79	115
2203.18	101
2203.56	131
2203.95	95
2204.34	129
2204.72	107
2205.11	103
2205.49	147
2205.88	105
2206.27	95
2206.65	109
2207.04	109
2207.43	107
2207.81	85
2208.2	97
2208.58	113
2208.97	141
2209.36	91
2209.74	143
2210.13	69
2210.51	105
2210.9	127
2211.29	99
2211.67	135
2212.06	95
2212.44	109
2212.83	111
2213.21	155
2213.6	81
2213.98	143
2214.37	87
2214.76	127
2215.14	139
2215.53	89
2215.91	148.786
2216.3	63.8173
2216.69	145.648
2217.07	103.427
2217.46	124.136
2217.84	97.8892
2218.23	129.774
2218.61	76.4339
2219	125.215
2219.38	126.129
2219.77	102.245
2220.15	139.142
2220.54	55.5081
2220.92	139.688
2221.31	116.905
2221.69	127.149
2222.08	122.631
2222.46	96.4697
2222.85	112.666
2223.23	117.159
2223.62	114.895
2224	91.0693
2224.39	130.364
2224.77	69.3447
2225.16	124.251
2225.54	126.484
2225.93	114.559
2226.31	131.441
2226.7	107.378
2227.08	117.015
2227.47	119.327
2227.85	113.025
2228.23	114.195
2228.62	113.539
2229	109.538
2229.39	118.761
2229.77	134.316
2230.16	100.996
2230.54	122.932
2230.92	94.9458
2231.31	117.205
2231.69	127.75
2232.08	107.556
2232.46	131.062
2232.85	104.925
2233.23	115.171
2233.62	111.202
2234	121.466
2234.38	121.777
2234.77	110.245
2235.15	119.731
2235.54	115.918
2235.92	134.384
2236.3	105.235
2236.69	125.731
2237.07	91.0213
2237.46	117.095
2237.84	121.423
2238.22	119.506
2238.61	115.819
2238.99	95.9054
2239.37	121.215
2239.76	94.1959
2240.14	125.32
2240.53	106.457
2240.91	117.862
2241.29	98.6353
2241.68	123.809
2242.06	119.082
2242.44	125.258
2242.83	111.572
2243.21	115.05
2243.59	129.619
2243.98	105.845
2244.36	109.654
2244.74	100.646
2245.13	111.348
2245.51	101.475
2245.89	140.868
2246.28	104.851
2246.66	142.749
2247.04	89.091
2247.43	124.139
2247.81	104.996
2248.19	99.6551
2248.58	135.271
2248.96	93.7633
2249.34	109.873
2249.73	80.1339
2250.11	132.709
2250.49	103.464
2250.88	161.298
2251.26	87.1187
2251.64	146.101
2252.02	117.585
2252.41	109.253
2252.79	151.82
2252.8	153
2253.18	105
2253.57	137
2253.96	89
2254.35	145
2254.74	107
2255.12	127
2255.51	65
2255.9	165
2256.29	123
2256.67	135
2257.06	149
2257.45	91
2257.84	133
2258.22	93
2258.61	123
2259	123
2259.39	107
2259.77	85
2260.16	139
2260.55	113
2260.94	109
2261.32	117
2261.71	99
2262.1	119
2262.48	95
2262.87	119
2263.26	139
2263.65	99
2264.03	99
2264.42	123
2264.81	121
2265.19	131
2265.58	115
2265.97	107
2266.35	129
2266.74	139
2267.13	101
2267.51	147
2267.9	87
2268.29	115
2268.67	133
2269.06	95
2269.45	135
2269.83	65
2270.22	143
2270.61	97
2270.99	127
2271.38	99
2271.77	113
2272.15	97
2272.54	105
2272.93	127
2273.31	81
2273.7	157
2274.08	81
2274.47	155
2274.86	103
2275.24	127
2275.63	131
2276.02	105
2276.4	103
2276.79	113
2277.17	127
2277.56	95
2277.95	147
2278.33	43
2278.72	139
2279.1	107
2279.49	139
2279.88	129
2280.26	97
2280.65	113
2281.03	115
2281.42	127
2281.8	95
2282.19	133
2282.58	57
2282.96	147
2283.35	115
2283.73	117
2284.12	117
2284.5	73
2284.89	139
2285.28	125
2285.66	117
2286.05	117
2286.43	111
2286.82	79
2287.2	129
2287.59	123
2287.97	109
2288.36	115
2288.74	87
2289.13	119
2289.51	115
2289.9	111
2290.28	137
2290.67	93
2291.05	115
2291.44	127
2291.82	113
2292.21	123
2292.59	97
2292.98	105
2293.36	121
2293.75	147
2294.13	93
2294.52	149
2294.9	81
2295.29	113
2295.67	125
2296.06	99
2296.44	157
2296.83	75
2297.21	129
2297.6	109
2297.98	151
2298.36	101
2298.75	157
2299.13	93
2299.52	123
2299.9	129
2300.29	111
2300.67	157
2301.06	65
2301.44	149
2301.82	105
2302.21	125
2302.59	105
2302.98	115
2303.36	97
2303.75	125
2304.13	117
2304.51	97
2304.9	141
2305.28	57
2305.67	145
2306.05	141
2306.44	165
2306.82	119
2307.2	115
2307.59	97
2307.97	131
2308.35	135
2308.74	121
2309.12	133
2309.51	81
2309.89	145
2310.27	121
2310.66	121
2311.04	111
2311.42	91
2311.81	135
2312.19	121
2312.57	105
2312.96	121
2313.34	105
2313.73	95
2314.11	127
2314.49	123
2314.88	83
2315.26	109
2315.64	85
2316.03	119
2316.41	123
2316.79	101
2317.18	161
2317.56	77
2317.94	129
2318.32	117
2318.71	133
2319.09	105
2319.47	125
2319.86	117
2320.24	101
2320.62	149
2321.01	71
2321.39	173
2321.77	67
2322.15	137
2322.54	105
2322.92	131
2323.3	109
2323.69	101
2324.07	117
2324.45	121
2324.83	141
2325.22	55
2325.6	149
2325.98	75
2326.36	147
2326.75	91
2327.13	125
2327.51	131
2327.89	91
2328.28	141
2328.66	119
2329.04	131
2329.42	89
2329.81	135
2330.19	91
2330.57	153
2330.95	95
2331.33	137
2331.72	137
2332.1	89
2332.48	123
2332.86	139
2333.24	125
2333.63	103
2334.01	107
2334.39	111
2334.77	133
2335.15	105
2335.54	113
2335.92	141
2336.3	97
2336.68	113
2337.06	133
2337.44	109
2337.83	129
2338.21	77
2338.59	141
2338.97	133
2339.35	101
2339.73	115
2340.12	103
2340.5	91
2340.88	119
2341.26	149
2341.64	101
2342.02	167
2342.41	97
2342.79	141
2343.17	121
2343.55	109
2343.93	159
2344.31	89
2344.69	137
2345.07	93
2345.45	145
2345.84	101
2346.22	149
2346.6	97
2346.98	135
2347.36	115
2347.74	75
2348.12	169
2348.5	75
2348.88	131
2349.26	95
2349.65	143
2350.03	91
2350.41	133
2350.79	103
2351.17	141
2351.55	113
2351.93	105
2352.31	149
2352.69	91
2353.07	147
2353.45	79
2353.83	127
2354.21	123
2354.59	107
2354.98	111
2355.35	141
2355.74	113
2356.12	113
2356.5	155
2356.88	103
2357.26	157
2357.64	93
2358.02	137
2358.4	121
2358.78	89
2359.16	105
2359.54	149
2359.92	119
2360.3	125
2360.68	107
2361.06	103
2361.44	123
2361.82	117
2362.2	121
2362.58	167
2362.96	91
2363.34	109
2363.72	139
2364.1	103
2364.48	155
2364.86	67
2365.24	151
2365.62	127
2366	111
2366.38	105
2366.75	115
2367.14	109
2367.51	105
2367.89	133
2368.27	91
2368.65	169
2369.03	69
2369.41	143
2369.79	109
2370.17	105
2370.55	135
2370.93	93
2371.31	147
2371.69	87
2372.07	159
2372.45	91
2372.83	175
2373.2	81
2373.58	133
2373.96	123
2374.34	97
2374.72	149
2375.1	83
2375.48	143
2375.86	121
2376.24	149
2376.61	99
2376.99	129
2377.37	75
2377.75	155
2378.13	105
2378.51	117
2378.89	151
2379.27	77
2379.65	135
2380.02	83
2380.4	121
2380.78	119
2381.16	119
2381.54	93
2381.92	149
2382.3	109
2382.67	129
2383.05	135
2383.43	93
2383.81	137
2384.19	111
2384.57	103
2384.94	135
2385.32	91
2385.7	109
2386.08	137
2386.46	107
2386.83	123
2387.21	101
2387.59	101
2387.97	133
2388.35	151
2388.73	107
2389.1	133
2389.48	97
2389.86	123
2390.24	133
2390.62	107
2390.99	159
2391.37	71
2391.75	137
2392.13	93
2392.5	141
2392.88	97
2393.26	149
2393.64	97
2394.01	119
2394.39	149
2394.77	89
2395.15	167
2395.52	69
2395.9	155
2396.28	117
2396.66	131
2397.04	117
2397.41	131
2397.79	99
2398.17	119
2398.54	153
2398.92	105
2399.3	163
2399.68	55
2400.05	139
2400.43	127
2400.81	131
2401.18	133
2401.56	107
2401.94	111
2402.32	147
2402.69	135
2403.07	133
2403.45	149
2403.82	75
2404.2	149
2404.58	133
2404.95	127
2405.33	95
2405.71	101
2406.09	133
2406.46	129
2406.84	127
2407.22	141
2407.59	105
2407.97	103
2408.34	143
2408.72	121
2409.1	119
2409.47	141
2409.85	97
2410.23	123
2410.6	131
2410.98	87
2411.36	145
2411.73	67
2412.11	145
2412.49	93
2412.86	145
2413.24	115
2413.61	101
2413.99	109
2414.37	135
2414.74	161
2415.12	71
2415.5	173
2415.87	65
2416.25	143
2416.62	119
2417	135
2417.37	131
2417.75	97
2418.13	123
2418.5	121
2418.88	145
2419.25	81
2419.63	157
2420.01	71
2420.38	147
2420.76	107
2421.13	127
2421.51	151
2421.88	101
2422.26	139
2422.64	127
2423.01	147
2423.39	93
2423.76	125
2424.14	97
2424.51	135
2424.89	119
2425.26	123
2425.64	145
2426.01	97
2426.39	141
2426.76	135
2427.14	119
2427.52	133
2427.89	107
2428.26	115
2428.64	147
2429.02	107
2429.39	139
2429.77	121
2430.14	123
2430.52	125
2430.89	131
2431.26	111
2431.64	117
2432.02	99
2432.39	123
2432.77	135
2433.14	93
2433.51	147
2433.89	119
2434.26	139
2434.64	121
2435.01	135
2435.39	89
2435.76	155
2436.14	81
2436.51	133
2436.89	135
2437.26	85
2437.63	163
2438.01	105
2438.38	161
2438.76	121
2439.13	149
2439.51	97
2439.88	155
2440.26	115
2440.63	155
2441	133
2441.38	93
2441.75	201
2442.13	65
2442.5	165
2442.87	121
2443.25	151
2443.62	121
2444	119
2444.37	139
2444.74	153
2445.12	171
2445.49	93
2445.87	147
2446.24	87
2446.61	157
2446.99	105
2447.36	135
2447.73	127
2448.11	111
2448.48	145
2448.86	157
2449.23	169
2449.6	115
2449.98	147
2450.35	111
2450.72	151
2451.1	127
2451.47	151
2451.84	149
2452.22	117
2452.59	137
2452.97	157
2453.34	139
2453.71	143
2454.08	123
2454.46	111
2454.83	133
2455.2	123
2455.58	119
2455.95	147
2456.32	105
2456.7	135
2457.07	135
2457.44	121
2457.82	145
2458.19	103
2458.56	133
2458.93	139
2459.31	127
2459.68	131
2460.05	129
2460.43	125
2460.8	125
2461.17	159
2461.54	107
2461.92	177
2462.29	91
2462.66	155
2463.03	131
2463.41	105
2463.78	169
2464.15	109
2464.52	149
2464.9	97
2465.27	165
2465.64	105
2466.01	161
2466.39	97
2466.76	141
2467.13	135
2467.5	129
2467.88	139
2468.25	85
2468.62	157
2468.99	103
2469.37	151
2469.74	127
2470.11	127
2470.48	105
2470.85	159
2471.22	149
2471.6	97
2471.97	167
2472.34	93
2472.71	153
2473.08	111
2473.46	121
2473.83	137
2474.2	113
2474.57	111
2474.94	127
2475.32	129
2475.69	119
2476.06	137
2476.43	95
2476.8	137
2477.17	127
2477.55	155
2477.92	155
2478.29	105
2478.66	107
2479.03	141
2479.4	123
2479.77	139
2480.15	119
2480.52	139
2480.89	123
2481.26	131
2481.63	123
2482	135
2482.37	101
2482.74	121
2483.12	133
2483.49	105
2483.86	157
2484.23	79
2484.6	165
2484.97	111
2485.34	137
2485.71	115
2486.08	143
2486.46	93
2486.83	95
2487.2	133
2487.57	93
2487.94	175
2488.31	75
2488.68	153
2489.05	105
2489.42	147
2489.79	131
2490.16	129
2490.53	129
2490.9	103
2491.27	165
2491.64	93
2492.01	179
2492.38	59
2492.76	157
2493.13	127
2493.5	125
2493.87	139
2494.24	99
2494.61	133
2494.98	121
2495.35	139
2495.72	119
2496.09	141
2496.46	55
2496.83	147
2497.2	117
2497.57	113
2497.94	131
2498.31	99
2498.68	119
2499.05	121
2499.42	117
2499.79	121
2500.16	113
2500.53	89
2500.9	147
2501.27	121
2501.64	125
2502.01	121
2502.38	103
2502.75	135
2503.12	131
2503.49	127
2503.86	145
2504.23	101
2504.6	101
2504.97	121
2505.34	127
2505.7	143
2506.07	97
2506.44	109
2506.81	111
2507.18	121
2507.55	91
2507.92	153
2508.29	79
2508.66	121
2509.03	129
2509.4	113
2509.77	135
2510.14	85
2510.5	131
2510.88	119
2511.24	161
2511.61	93
2511.98	163
2512.35	83
2512.72	145
2513.09	135
2513.46	85
2513.83	169
2514.2	57
2514.56	135
2514.93	121
2515.3	163
2515.67	107
2516.04	121
2516.41	97
2516.78	117
2517.15	129
2517.51	95
2517.88	165
2518.25	59
2518.62	143
2518.99	115
2519.36	115
2519.73	117
2520.09	109
2520.46	101
2520.83	133
2521.2	141
2521.57	115
2521.94	151
2522.3	87
2522.67	145
2523.04	115
2523.41	125
2523.78	125
2524.15	103
2524.51	123
2524.88	135
2525.25	117
2525.62	125
2525.98	129
2526.35	95
2526.72	165
2527.09	129
2527.46	109
2527.83	127
2528.19	101
2528.56	147
2528.93	133
2529.3	111
2529.66	139
2530.03	65
2530.4	99
2530.77	121
2531.13	117
2531.5	101
2531.87	93
2532.24	103
2532.61	141
2532.97	149
2533.34	87
2533.71	173
2534.07	79
2534.44	143
2534.81	129
2535.18	129
2535.54	131
2535.91	99
2536.28	123
2536.65	131
2537.01	129
2537.38	67
2537.75	165
2538.11	57
2538.48	137
2538.85	125
2539.22	113
2539.58	141
2539.95	61
2540.32	117
2540.68	105
2541.05	133
2541.42	63
2541.78	139
2542.15	71
2542.52	157
2542.89	129
2543.25	113
2543.62	159
2543.99	75
2544.35	123
2544.72	115
2545.08	123
2545.45	111
2545.82	121
2546.19	113
2546.55	173
2546.92	107
2547.28	119
2547.65	117
2548.02	83
2548.38	139
2548.75	125
2549.12	131
2549.48	113
2549.85	103
2550.21	113
2550.58	137
2550.95	87
2551.31	127
2551.68	115
2552.05	121
2552.41	139
2552.78	133
2553.14	115
2553.51	127
2553.88	111
2554.24	131
2554.61	125
2554.97	99
2555.34	131
2555.71	87
2556.07	129
2556.44	123
2556.8	133
2557.17	95
2557.53	149
2557.9	97
2558.27	127
2558.63	125
2559	73
2559.36	149
2559.73	83
2560.09	141
2560.46	95
2560.82	149
2561.19	93
2561.55	101
2561.92	107
2562.29	125
2562.65	139
2563.02	79
2563.38	171
2563.75	79
2564.11	159
2564.48	93
2564.84	125
2565.21	137
2565.57	108.847
2565.94	130.676
2566.3	121.13
2566.67	122.248
2567.03	95.3638
2567.4	139.76
2567.76	104.39
2568.13	123.118
2568.49	102.167
2568.86	124.693
2569.22	129.311
2569.59	85.2888
2569.95	118.805
2570.32	131.563
2570.68	99.6922
2571.05	125.898
2571.41	95.3515
2571.78	99.1149
2572.14	136.491
2572.51	103.601
2572.87	114.096
2573.23	124.432
2573.6	101.352
2573.96	112.898
2574.33	123.752
2574.69	103.557
2575.06	127.404
2575.42	96.5732
2575.79	124.102
2576.15	122.612
2576.51	107.85
2576.88	123.394
2577.24	114.149
2577.61	103.996
2577.97	118.722
2578.34	133.408
2578.7	107.137
2579.06	140.953
2579.43	76.0655
2579.79	131.394
2580.16	109.829
2580.52	126.558
2580.88	125.428
2581.25	97.8081
2581.61	116.974
2581.98	106.783
2582.34	133.625
2582.7	106.148
2583.07	140.675
2583.43	87.7593
2583.8	140.671
2584.16	124.566
2584.52	118.425
2584.89	143.103
2585.25	103.753
2585.61	145.642
2585.98	112.862
2586.34	137.276
2586.7	108.538
2587.07	128.282
2587.43	89.463
2587.8	139.685
2588.16	124.567
2588.52	118.499
2588.88	136.497
2589.25	81.5245
2589.61	138.38
2589.97	112.968
2590.34	126.945
2590.7	117.473
2591.06	127.183
2591.43	94.248
2591.79	144.635
2592.15	113.288
2592.52	130.935
2592.88	133.015
2593.24	86.4277
2593.61	149.408
2593.97	117.031
2594.33	121.07
2594.7	125.786
2595.06	109.095
2595.42	109.619
2595.78	147.444
2596.15	121.163
2596.51	117.822
2596.87	121.332
2597.24	92.6594
2597.6	142.333
2597.96	126.292
2598.32	109.853
2598.69	141.851
2599.05	105.457
2599.41	141.463
2599.78	140.313
2600.14	106.822
2600.5	123.016
2600.86	105.837
2600.95	99
2601.31	131
2601.68	119
2602.05	153
2602.42	79
2602.78	151
2603.15	103
2603.52	153
2603.89	155
2604.25	91
2604.62	169
2604.99	89
2605.35	141
2605.72	117
2606.09	151
2606.46	91
2606.82	145
2607.19	115
2607.56	145
2607.92	141
2608.29	95
2608.66	157
2609.03	87
2609.39	145
2609.76	103
2610.13	161
2610.49	117
2610.86	133
2611.23	105
2611.59	133
2611.96	119
2612.33	99
2612.69	173
2613.06	91
2613.43	167
2613.79	105
2614.16	153
2614.53	131
2614.89	125
2615.26	121
2615.62	143
2615.99	125
2616.36	107
2616.72	161
2617.09	99
2617.46	155
2617.82	119
2618.19	133
2618.56	151
2618.92	111
2619.29	133
2619.65	155
2620.02	129
2620.39	129
2620.75	155
2621.12	135
2621.48	157
2621.85	101
2622.22	143
2622.58	151
2622.95	139
2623.31	143
2623.68	165
2624.04	105
2624.41	171
2624.78	117
2625.14	153
2625.51	135
2625.87	141
2626.24	155
2626.6	155
2626.97	143
2627.34	151
2627.7	181
2628.07	115
2628.43	187
2628.8	93
2629.16	191
2629.53	151
2629.9	145
2630.26	169
2630.63	129
2630.99	155
2631.36	145
2631.72	181
2632.09	115
2632.45	185
2632.82	91
2633.18	173
2633.55	137
2633.91	159
2634.28	173
2634.64	137
2635.01	163
2635.37	135
2635.74	175
2636.1	129
2636.47	193
2636.83	119
2637.2	213
2637.56	143
2637.93	151
2638.29	209
2638.66	135
2639.02	171
2639.39	155
2639.75	213
2640.12	167
2640.48	183
2640.84	117
2641.21	197
2641.57	173
2641.94	173
2642.3	201
2642.67	131
2643.03	227
2643.4	169
2643.76	213
2644.13	173
2644.49	173
2644.85	183
2645.22	191
2645.58	207
2645.95	217
2646.31	203
2646.68	191
2647.04	201
2647.4	193
2647.77	193
2648.13	217
2648.5	169
2648.86	205
2649.22	213
2649.59	215
2649.95	239
2650.32	197
2650.68	213
2651.04	209
2651.41	251
2651.77	233
2652.14	251
2652.5	203
2652.86	231
2653.23	249
2653.59	215
2653.95	303
2654.32	185
2654.68	245
2655.05	263
2655.41	265
2655.77	265
2656.14	255
2656.5	249
2656.86	239
2657.23	277
2657.59	223
2657.95	315
2658.32	201
2658.68	319
2659.04	269
2659.41	283
2659.77	283
2660.13	265
2660.5	257
2660.86	249
2661.22	279
2661.59	273
2661.95	327
2662.31	217
2662.68	281
2663.04	269
2663.4	325
2663.76	333
2664.13	273
2664.49	323
2664.85	279
2665.22	327
2665.58	267
2665.94	361
2666.3	263
2666.67	351
2667.03	285
2667.39	345
2667.76	347
2668.12	299
2668.48	359
2668.84	319
2669.21	321
2669.57	345
2669.93	347
2670.29	329
2670.66	343
2671.02	333
2671.38	323
2671.74	331
2672.11	307
2672.47	323
2672.83	363
2673.19	317
2673.56	351
2673.92	303
2674.28	355
2674.64	321
2675	345
2675.37	325
2675.73	341
2676.09	303
2676.45	331
2676.81	351
2677.18	313
2677.54	383
2677.9	287
2678.26	347
2678.62	323
2678.99	335
2679.35	333
2679.71	299
2680.07	325
2680.43	347
2680.8	397
2681.16	253
2681.52	349
2681.88	263
2682.24	381
2682.6	289
2682.97	321
2683.33	335
2683.69	283
2684.05	313
2684.41	279
2684.77	289
2685.13	291
2685.5	355
2685.86	259
2686.22	305
2686.58	277
2686.94	309
2687.3	333
2687.66	239
2688.03	327
2688.39	267
2688.75	319
2689.11	289
2689.47	307
2689.83	249
2690.19	269
2690.55	269
2690.91	263
2691.28	263
2691.64	197
2692	289
2692.36	247
2692.72	261
2693.08	245
2693.44	227
2693.8	255
2694.16	249
2694.52	243
2694.88	235
2695.24	215
2695.61	197
2695.97	231
2696.33	229
2696.69	229
2697.05	239
2697.41	213
2697.77	221
2698.13	211
2698.49	175
2698.85	251
2699.21	183
2699.57	265
2699.93	221
2700.29	203
2700.65	225
2701.01	241
2701.37	193
2701.73	209
2702.09	203
2702.45	175
2702.81	215
2703.18	175
2703.53	205
2703.89	175
2704.25	221
2704.62	187
2704.98	177
2705.33	147
2705.69	191
2706.06	197
2706.42	141
2706.78	233
2707.13	123
2707.49	213
2707.85	165
2708.22	209
2708.57	191
2708.93	175
2709.29	189
2709.65	169
2710.01	191
2710.37	133
2710.73	221
2711.09	115
2711.45	207
2711.81	147
2712.17	179
2712.53	185
2712.89	145
2713.25	181
2713.61	171
2713.97	159
2714.33	155
2714.69	181
2715.05	107
2715.41	171
2715.76	155
2716.12	143
2716.48	177
2716.84	153
2717.2	175
2717.56	153
2717.92	147
2718.28	165
2718.64	141
2719	165
2719.35	167
2719.71	125
2720.07	161
2720.43	163
2720.79	125
2721.15	129
2721.51	163
2721.87	113
2722.23	175
2722.59	105
2722.94	157
2723.3	157
2723.66	143
2724.02	159
2724.38	141
2724.74	129
2725.1	107
2725.46	147
2725.81	109
2726.17	179
2726.53	103
2726.89	167
2727.25	131
2727.61	125
2727.96	169
2728.32	133
2728.68	143
2729.04	109
2729.4	145
2729.75	113
2730.11	161
2730.47	93
2730.83	173
2731.19	151
2731.55	127
2731.91	157
2732.26	89
2732.62	153
2732.98	99
2733.34	157
2733.69	117
2734.05	149
2734.41	93
2734.77	141
2735.13	127
2735.48	105
2735.84	153
2736.2	91
2736.56	169
2736.91	99
2737.27	155
2737.63	141
2737.99	127
2738.35	115
2738.7	129
2739.06	147
2739.42	135
2739.78	145
2740.13	107
2740.49	151
2740.85	129
2741.21	147
2741.56	149
2741.92	109
2742.28	121
2742.64	155
2742.99	117
2743.35	149
2743.71	131
2744.06	119
2744.42	117
2744.78	139
2745.14	111
2745.49	163
2745.85	99
2746.21	111
2746.57	151
2746.92	135
2747.28	145
2747.64	95
2747.99	131
2748.35	135
2748.71	149
2749.06	117
2749.42	149
2749.78	115
2750.13	131
2750.49	133
2750.85	113
2751.2	165
2751.56	49
2751.92	151
2752.27	115
2752.63	141
2752.99	119
2753.34	131
2753.7	95
2754.06	125
2754.41	129
2754.77	93
2755.13	165
2755.48	59
2755.84	151
2756.2	109
2756.55	143
2756.91	111
2757.26	117
2757.62	115
2757.98	133
2758.33	141
2758.69	121
2759.04	165
2759.4	65
2759.76	175
2760.11	121
2760.47	131
2760.83	117
2761.18	125
2761.54	137
2761.89	131
2762.25	133
2762.61	127
2762.96	123
2763.32	93
2763.67	139
2764.03	109
2764.38	125
2764.74	117
2765.1	93
2765.45	123
2765.81	129
2766.16	125
2766.52	151
2766.88	97
2767.23	129
2767.59	141
2767.94	135
2768.3	129
2768.65	109
2769.01	107
2769.36	137
2769.72	147
2770.07	107
2770.43	163
2770.78	91
2771.14	139
2771.49	119
2771.85	129
2772.21	107
2772.56	109
2772.92	121
2773.27	131
2773.63	145
2773.98	73
2774.34	173
2774.69	127
2775.05	169
2775.4	109
2775.76	139
2776.11	135
2776.47	99
2776.82	115
2777.18	117
2777.53	159
2777.89	97
2778.24	171
2778.59	69
2778.95	157
2779.3	107
2779.66	131
2780.01	157
2780.37	93
2780.72	137
2781.08	117
2781.43	157
2781.79	69
2782.14	155
2782.49	115
2782.85	173
2783.2	123
2783.56	99
2783.91	129
2784.27	77
2784.62	125
2784.98	111
2785.33	123
2785.68	107
2786.04	125
2786.39	113
2786.75	143
2787.1	101
2787.46	117
2787.81	131
2788.16	101
2788.52	147
2788.87	123
2789.22	113
2789.58	129
2789.93	103
2790.29	113
2790.64	141
2790.99	115
2791.35	131
2791.7	113
2792.06	135
2792.41	133
2792.76	137
2793.12	107
2793.47	139
2793.82	87
2794.18	131
2794.53	115
2794.88	85
2795.24	137
2795.59	107
2795.95	125
2796.3	123
2796.65	143
2797.01	95
2797.36	143
2797.71	95
2798.07	145
2798.42	143
2798.77	89
2799.13	151
2799.48	79
2799.83	155
2800.19	107
2800.54	159
2800.89	101
2801.24	139
2801.6	101
2801.95	139
2802.3	151
2802.66	65
2803.01	181
2803.36	53
2803.72	161
2804.07	97
2804.42	123
2804.77	111
2805.13	101
2805.48	109
2805.83	133
2806.19	117
2806.54	79
2806.89	141
2807.24	89
2807.6	155
2807.95	103
2808.3	113
2808.65	137
2809.01	107
2809.36	129
2809.71	117
2810.06	129
2810.42	115
2810.77	131
2811.12	99
2811.47	147
2811.83	87
2812.18	131
2812.53	161
2812.88	87
2813.24	107
2813.59	119
2813.94	101
2814.29	127
2814.64	115
2815	123
2815.35	133
2815.7	107
2816.05	101
2816.4	135
2816.76	95
2817.11	127
2817.46	123
2817.81	109
2818.16	161
2818.52	79
2818.87	141
2819.22	123
2819.57	125
2819.92	101
2820.28	135
2820.63	103
2820.98	103
2821.33	141
2821.68	105
2822.03	179
2822.39	69
2822.74	145
2823.09	105
2823.44	111
2823.79	131
2824.14	105
2824.49	109
2824.85	93
2825.2	147
2825.55	85
2825.9	161
2826.25	69
2826.6	149
2826.95	93
2827.31	119
2827.66	143
2828.01	101
2828.36	137
2828.71	111
2829.06	159
2829.41	105
2829.76	141
2830.11	81
2830.46	163
2830.82	115
2831.17	115
2831.52	121
2831.87	109
2832.22	117
2832.57	119
2832.92	111
2833.27	133
2833.62	113
2833.97	75
2834.32	139
2834.68	99
2835.03	103
2835.38	115
2835.73	95
2836.08	161
2836.43	111
2836.78	115
2837.13	147
2837.48	93
2837.83	93
2838.18	137
2838.53	113
2838.88	123
2839.23	105
2839.58	99
2839.93	121
2840.28	141
2840.63	97
2840.98	159
2841.33	77
2841.68	133
2842.03	113
2842.38	131
2842.73	141
2843.08	65
2843.43	127
2843.78	111
2844.13	151
2844.48	85
2844.83	159
2845.18	81
2845.53	129
2845.88	115
2846.23	103
2846.58	155
2846.93	75
2847.28	143
2847.63	105
2847.98	141
2848.33	83
2848.68	141
2849.03	103
2849.38	135
2849.73	127
2850.08	119
2850.43	149
2850.78	63
2851.13	137
2851.48	107
2851.83	151
2852.18	123
2852.53	107
2852.88	113
2853.23	133
2853.57	101
2853.92	97
2854.27	129
2854.62	61
2854.97	143
2855.32	115
2855.67	115
2856.02	109
2856.37	107
2856.72	115
2857.07	125
2857.42	107
2857.76	137
2858.11	111
2858.46	93
2858.81	149
2859.16	123
2859.51	119
2859.86	125
2860.21	115
2860.56	127
2860.91	141
2861.25	93
2861.6	147
2861.95	77
2862.3	119
2862.65	117
2863	141
2863.35	99
2863.69	109
2864.04	89
2864.39	127
2864.74	133
2865.09	57
2865.44	171
2865.78	83
2866.13	137
2866.48	113
2866.83	141
2867.18	111
2867.53	105
2867.88	115
2868.22	121
2868.57	145
2868.92	53
2869.27	161
2869.62	71
2869.96	147
2870.31	113
2870.66	123
2871.01	135
2871.36	89
2871.7	133
2872.05	107
2872.4	137
2872.75	65
2873.1	139
2873.44	85
2873.79	139
2874.14	99
2874.49	113
2874.84	133
2875.18	85
2875.53	125
2875.88	107
2876.23	137
2876.57	95
2876.92	123
2877.27	91
2877.62	131
2877.97	115
2878.31	111
2878.66	135
2879.01	95
2879.36	123
2879.7	117
2880.05	129
2880.4	97
2880.74	105
2881.09	105
2881.44	149
2881.79	93
2882.13	109
2882.48	133
2882.83	107
2883.18	119
2883.52	133
2883.87	87
2884.22	111
2884.56	99
2884.91	117
2885.26	131
2885.61	97
2885.95	123
2886.3	105
2886.65	115
2886.99	115
2887.34	137
2887.69	103
2888.03	149
2888.38	79
2888.73	137
2889.07	109
2889.42	79
2889.77	149
2890.11	75
2890.46	129
2890.81	113
2891.15	143
2891.5	91
2891.85	129
2892.19	87
2892.54	143
2892.89	125
2893.23	57
2893.58	161
2893.93	81
2894.27	139
2894.62	75
2894.96	139
2895.31	101
2895.66	123
2896	93
2896.35	122.83
2896.7	120.823
2897.04	93.3866
2897.39	145.74
2897.73	87.3818
2898.08	139.753
2898.43	101.62
2898.77	128.158
2899.12	110.924
2899.46	108.18
2899.81	122.398
2900.16	144.409
2900.5	119.555
2900.85	93.3718
2901.19	114.455
2901.54	101.084
2901.88	144.549
2902.23	99.9395
2902.58	114.931
2902.92	129.94
2903.27	96.4523
2903.61	118.608
2903.96	128.871
2904.31	112.267
2904.65	135.393
2905	93.8164
2905.34	106.063
2905.69	115.659
2906.03	100.04
2906.38	103.333
2906.72	130.611
2907.07	120.649
2907.42	109.973
2907.76	135.436
2908.11	106.502
2908.45	148.159
2908.8	84.1103
2909.14	144.522
2909.49	96.39
2909.83	103.766
2910.18	123.368
2910.52	105.089
2910.87	121.853
2911.21	90.2445
2911.56	144.397
2911.9	105.66
2912.25	137.19
2912.59	75.589
2912.94	129.248
2913.28	101.205
2913.63	121.232
2913.97	131.733
2914.32	97.9137
2914.66	120.293
2915.01	96.0925
2915.35	132.79
2915.7	105.864
2916.04	126.937
2916.39	72.8278
2916.73	133.381
2917.08	119.292
2917.42	121.603
2917.77	139.343
2918.11	111.41
2918.46	117.495
2918.8	102.127
2919.15	109.141
2919.49	119.221
2919.83	126.674
2920.18	91.2041
2920.52	133.384
2920.87	119.356
2921.21	120.929
2921.56	114.127
2921.9	92.7139
2922.24	115.115
2922.59	107.747
2922.93	107.25
2923.28	118.558
2923.62	118.774
2923.97	92.4191
2924.31	116.117
2924.65	116.921
2925	126.582
2925.34	131.521
2925.69	95.1433
2926.03	123.54
2926.38	125.141
2926.72	123.137
2927.06	121.802
2927.41	123.562
2927.75	95.5065
2928.09	125.555
2928.44	121.264
2928.78	124.938
2929.13	131.006
2929.47	79.4784
2929.81	150.768
2930.16	112.128
2930.5	142.611
2930.79	89
2931.14	135
2931.49	91
2931.84	109
2932.19	127
2932.54	95
2932.88	159
2933.23	63
2933.58	147
2933.93	91
2934.28	141
2934.63	105
2934.97	115
2935.32	99
2935.67	127
2936.02	155
2936.37	105
2936.71	147
2937.06	65
2937.41	135
2937.76	103
2938.11	125
2938.46	131
2938.8	93
2939.15	115
2939.5	139
2939.85	117
2940.19	101
2940.54	115
2940.89	81
2941.24	137
2941.59	117
2941.93	129
2942.28	103
2942.63	97
2942.98	121
2943.32	135
2943.67	111
2944.02	127
2944.37	111
2944.72	95
2945.06	117
2945.41	121
2945.76	93
2946.11	129
2946.45	101
2946.8	121
2947.15	133
2947.49	109
2947.84	141
2948.19	95
2948.54	123
2948.88	123
2949.23	125
2949.58	109
2949.93	113
2950.27	97
2950.62	117
2950.97	127
2951.31	67
2951.66	163
2952.01	57
2952.35	145
2952.7	87
2953.05	125
2953.4	105
2953.74	107
2954.09	121
2954.44	113
2954.78	153
2955.13	83
2955.48	165
2955.82	85
2956.17	155
2956.52	97
2956.86	111
2957.21	127
2957.56	103
2957.9	115
2958.25	115
2958.6	129
2958.94	95
2959.29	155
2959.64	79
2959.98	125
2960.33	117
2960.68	107
2961.02	123
2961.37	81
2961.72	107
2962.06	109
2962.41	119
2962.76	79
2963.1	149
2963.45	97
2963.79	145
2964.14	95
2964.49	129
2964.83	135
2965.18	99
2965.52	133
2965.87	125
2966.22	123
2966.56	119
2966.91	131
2967.25	113
2967.6	143
2967.95	101
2968.29	127
2968.64	131
2968.98	91
2969.33	109
2969.68	117
2970.02	95
2970.37	119
2970.71	93
2971.06	129
2971.4	127
2971.75	83
2972.1	121
2972.44	107
2972.79	127
2973.13	111
2973.48	139
2973.82	93
2974.17	155
2974.51	101
2974.86	145
2975.21	157
2975.55	107
2975.9	145
2976.24	79
2976.59	125
2976.93	103
2977.28	123.5
2977.62	122.7
2977.97	187
2978.31	75
2978.66	129
2979	129
2979.35	85
2979.69	147
2980.04	75
2980.38	141
2980.73	91
2981.07	139
2981.42	113
2981.76	137
2982.11	89
2982.45	149
2982.8	129
2983.14	99
2983.49	151
2983.83	91
2984.18	133
2984.52	101
2984.87	123
2985.21	119
2985.56	139
2985.9	87
2986.25	143
2986.59	125
2986.94	105
2987.28	141
2987.62	67
2987.97	149
2988.31	87
2988.66	129
2989	123
2989.35	115
2989.69	105
2990.03	127
2990.38	109
2990.72	99
2991.07	125
2991.41	77
2991.76	145
2992.1	113
2992.44	101
2992.79	131
2993.13	101
2993.48	103
2993.82	147
2994.17	107
2994.51	141
2994.85	103
2995.2	113
2995.54	119
2995.89	133
2996.23	113
2996.57	169
2996.92	111
2997.26	99
2997.6	129
2997.95	103
2998.29	159
2998.64	73
2998.98	123
2999.32	115
2999.67	141
