#Acq. time (s)=	30
#Accumulations=	1
#Range (cm-¹)=	1050...3000 (30 s) 
#Windows=	6
#Auto scanning=	Off
#Autofocus=	Off
#AutoExposure=	Off
#Spike filter=	Off
#Delay time (s)=	0
#Binning=	1
#Readout mode=	Signal
#DeNoise=	Off
#ICS correction=	Off
#Dark correction=	Off
#Inst. Process=	Off
#Detector Gain=	High Sensitivity
#Detector ADC=	45 kHz       
#Detector temperature (°C)=	-60.1
#Instrument=	LabRAM
#Detector=	Syncerity
#Objective=	x50LWD
#Grating=	1800
#Filter=	25%
#Laser (nm)=	532
#Hole=	100
#E-Cal_Neon=	0
#StageXY=	Marzhauser
#StageZ=	Marzhauser
#X (µm)=	0
#Y (µm)=	0
#Z (µm)=	-1678.85
#Spectral res.(cm-¹)=	1.9
#Full time(mm:ss)=	3:09
#AC=	Not calibrated
#Project=	
#Sample=	
#Site=	
#Title=	Spot 1 500K reverse
#Remark=	
#Date=	19.02.2026 12:24
#Acquired=	19.02.2026 12:24:59
#Edit:Spike=	19.02.2026 12:25:57
#Edit:Spike=	19.02.2026 12:26:05
#Edit:Spike=	19.02.2026 12:27:32
#AxisType[0]=Intens
#AxisUnit[0]=Cnt
#AxisType[1]=Spectr
#AxisUnit[1]=1/cm
1050.13	87
1050.59	145
1051.05	111
1051.51	129
1051.97	99
1052.44	121
1052.9	135
1053.36	75
1053.82	185
1054.28	75
1054.74	179
1055.2	83
1055.67	133
1056.13	131
1056.59	117
1057.05	97
1057.51	115
1057.97	115
1058.43	99
1058.89	177
1059.36	79
1059.82	149
1060.28	87
1060.74	127
1061.2	121
1061.66	109
1062.12	93
1062.58	167
1063.04	125
1063.5	103
1063.96	131
1064.43	77
1064.89	153
1065.35	113
1065.81	129
1066.27	121
1066.73	127
1067.19	79
1067.65	129
1068.11	131
1068.57	115
1069.03	143
1069.49	105
1069.95	133
1070.41	101
1070.87	129
1071.33	129
1071.79	117
1072.25	111
1072.71	137
1073.17	123
1073.63	119
1074.09	129
1074.55	103
1075.01	127
1075.47	143
1075.93	105
1076.39	145
1076.85	97
1077.31	105
1077.77	127
1078.23	115
1078.69	119
1079.15	125
1079.61	117
1080.07	131
1080.53	131
1080.99	99
1081.45	137
1081.91	77
1082.37	119
1082.83	121
1083.29	107
1083.75	121
1084.21	107
1084.66	105
1085.12	127
1085.58	137
1086.04	79
1086.5	145
1086.96	61
1087.42	125
1087.88	127
1088.34	137
1088.8	117
1089.25	83
1089.71	121
1090.17	117
1090.63	153
1091.09	69
1091.55	187
1092.01	69
1092.47	151
1092.92	91
1093.38	115
1093.84	127
1094.3	103
1094.76	119
1095.22	129
1095.68	151
1096.13	59
1096.59	167
1097.05	65
1097.51	145
1097.97	103
1098.43	121
1098.88	129
1099.34	97
1099.8	119
1100.26	127
1100.72	129
1101.17	69
1101.63	169
1102.09	81
1102.55	157
1103.01	101
1103.46	153
1103.92	129
1104.38	135
1104.84	123
1105.29	137
1105.75	131
1106.21	79
1106.67	153
1107.12	77
1107.58	161
1108.04	87
1108.5	125
1108.95	125
1109.41	115
1109.87	115
1110.33	127
1110.78	129
1111.24	121
1111.7	147
1112.16	91
1112.61	139
1113.07	107
1113.53	109
1113.98	135
1114.44	101
1114.9	119
1115.35	131
1115.81	141
1116.27	131
1116.72	107
1117.18	125
1117.64	125
1118.1	107
1118.55	123
1119.01	141
1119.47	101
1119.92	91
1120.38	139
1120.84	107
1121.29	129
1121.75	103
1122.2	107
1122.66	129
1123.12	129
1123.57	123
1124.03	159
1124.49	95
1124.94	111
1125.4	125
1125.86	139
1126.31	125
1126.77	111
1127.22	135
1127.68	133
1128.14	155
1128.59	85
1129.05	173
1129.5	69
1129.96	119
1130.41	115
1130.87	127
1131.33	143
1131.78	79
1132.24	119
1132.69	97
1133.15	151
1133.61	75
1134.06	167
1134.52	77
1134.97	141
1135.43	125
1135.88	117
1136.34	123
1136.79	81
1137.25	115
1137.7	135
1138.16	153
1138.61	71
1139.07	167
1139.52	91
1139.98	157
1140.43	95
1140.89	121
1141.34	127
1141.8	93
1142.25	125
1142.71	133
1143.16	147
1143.62	81
1144.07	171
1144.53	97
1144.98	151
1145.44	99
1145.89	137
1146.35	125
1146.8	107
1147.26	121
1147.71	139
1148.16	143
1148.62	83
1149.07	157
1149.53	77
1149.98	139
1150.44	81
1150.89	125
1151.35	133
1151.8	119
1152.25	111
1152.71	145
1153.16	143
1153.62	91
1154.07	153
1154.52	75
1154.98	157
1155.43	97
1155.89	127
1156.34	127
1156.79	133
1157.25	111
1157.7	123
1158.16	125
1158.61	119
1159.06	137
1159.52	97
1159.97	149
1160.42	87
1160.88	131
1161.33	123
1161.78	95
1162.24	97
1162.69	119
1163.14	111
1163.6	137
1164.05	133
1164.5	91
1164.96	139
1165.41	119
1165.86	111
1166.32	163
1166.77	89
1167.22	127
1167.68	135
1168.13	121
1168.58	139
1169.04	105
1169.49	117
1169.94	123
1170.39	135
1170.85	93
1171.3	169
1171.75	95
1172.2	117
1172.66	137
1173.11	121
1173.56	135
1174.01	85
1174.47	133
1174.92	133
1175.37	143
1175.82	101
1176.28	159
1176.73	71
1177.18	137
1177.63	111
1178.09	115
1178.54	153
1178.99	89
1179.44	125
1179.89	129
1180.35	129
1180.8	91
1181.25	181
1181.7	83
1182.15	137
1182.61	127
1183.06	119
1183.51	145
1183.96	71
1184.41	125
1184.87	107
1185.32	153
1185.77	81
1186.22	163
1186.67	89
1187.12	145
1187.58	115
1188.03	123
1188.48	135
1188.93	71
1189.38	135
1189.83	113
1190.28	161
1190.73	89
1191.19	171
1191.64	65
1192.09	163
1192.54	115
1192.99	129
1193.44	135
1193.89	87
1194.34	139
1194.8	129
1195.25	141
1195.7	81
1196.15	177
1196.6	81
1197.05	167
1197.5	97
1197.95	137
1198.4	153
1198.85	105
1199.3	141
1199.75	107
1200.2	141
1200.66	77
1201.11	161
1201.56	87
1202.01	145
1202.46	81
1202.91	129
1203.36	131
1203.81	85
1204.26	121
1204.71	121
1205.16	109
1205.61	103
1206.06	147
1206.51	83
1206.96	139
1207.41	119
1207.86	147
1208.31	155
1208.76	93
1209.21	103
1209.66	135
1210.11	133
1210.56	117
1211.01	115
1211.46	103
1211.91	143
1212.36	95
1212.81	113
1213.26	149
1213.71	113
1214.16	137
1214.61	143
1215.05	109
1215.51	131
1215.95	111
1216.4	111
1216.85	153
1217.3	97
1217.75	115
1218.2	133
1218.65	107
1219.1	105
1219.55	133
1220	121
1220.45	149
1220.9	91
1221.34	131
1221.79	117
1222.24	123
1222.69	99
1223.14	167
1223.59	85
1224.04	111
1224.49	133
1224.94	115
1225.38	143
1225.83	91
1226.28	125
1226.73	99
1227.18	143
1227.63	107
1228.07	149
1228.52	77
1228.97	135
1229.42	121
1229.87	105
1230.32	145
1230.76	79
1231.21	141
1231.66	115
1232.11	157
1232.56	83
1233.01	151
1233.45	77
1233.9	133
1234.35	109
1234.8	121
1235.25	143
1235.69	91
1236.14	155
1236.59	117
1237.04	141
1237.49	69
1237.93	163
1238.38	79
1238.83	169
1239.28	127
1239.72	117
1240.17	145
1240.62	57
1241.07	151
1241.51	135
1241.96	159
1242.41	71
1242.86	153
1243.3	99
1243.75	145
1244.2	117
1244.65	125
1245.09	135
1245.54	109
1245.99	135
1246.44	133
1246.88	139
1247.33	91
1247.78	153
1248.22	79
1248.67	147
1249.12	103
1249.56	137
1250.01	143
1250.46	87
1250.9	133
1251.35	147
1251.8	125
1252.24	109
1252.69	151
1253.14	95
1253.58	155
1254.03	97
1254.48	117
1254.92	151
1255.37	99
1255.82	123
1256.26	135
1256.71	127
1257.15	123
1257.6	119
1258.05	103
1258.49	151
1258.94	123
1259.39	131
1259.83	159
1260.28	119
1260.72	115
1261.17	147
1261.62	117
1262.06	145
1262.51	107
1262.95	111
1263.4	127
1263.85	109
1264.29	121
1264.74	161
1265.18	83
1265.63	107
1266.07	137
1266.52	101
1266.97	139
1267.41	95
1267.86	137
1268.3	139
1268.75	131
1269.19	119
1269.64	139
1270.08	109
1270.53	107
1270.97	119
1271.42	127
1271.86	147
1272.31	89
1272.76	139
1273.2	129
1273.64	135
1274.09	97
1274.53	155
1274.98	81
1275.42	131
1275.87	145
1276.31	109
1276.76	171
1277.2	59
1277.65	143
1278.09	109
1278.54	153
1278.98	107
1279.43	153
1279.87	81
1280.32	123
1280.76	139
1281.21	103
1281.65	157
1282.09	77
1282.54	159
1282.98	127
1283.43	165
1283.87	99
1284.32	147
1284.76	95
1285.21	173
1285.65	121
1286.09	125
1286.54	169
1286.98	75
1287.42	153
1287.87	127
1288.31	149
1288.76	79
1289.2	155
1289.64	93
1290.09	147
1290.53	101
1290.98	107
1291.42	147
1291.86	79
1292.31	165
1292.75	119
1293.19	149
1293.64	57
1294.08	149
1294.53	111
1294.97	147
1295.41	95
1295.85	109
1296.3	145
1296.74	85
1297.19	145
1297.63	129
1298.07	123
1298.51	97
1298.96	137
1299.4	125
1299.84	161
1300.29	105
1300.73	113
1301.17	137
1301.62	105
1302.06	127
1302.5	125
1302.94	111
1303.39	117
1303.83	123
1304.27	93
1304.72	131
1305.16	115
1305.6	145
1306.04	145
1306.49	99
1306.93	123
1307.37	129
1307.81	123
1308.26	141
1308.7	111
1309.14	119
1309.58	125
1310.03	119
1310.47	131
1310.91	153
1311.35	113
1311.8	129
1312.24	145
1312.68	111
1313.12	163
1313.56	75
1314	141
1314.45	111
1314.89	139
1315.33	103
1315.77	161
1316.22	115
1316.66	113
1317.1	147
1317.54	117
1317.98	189
1318.43	85
1318.87	147
1319.31	133
1319.75	149
1320.19	125
1320.63	167
1321.07	87
1321.51	141
1321.96	149
1322.4	125
1322.84	159
1323.28	81
1323.72	163
1324.16	135
1324.6	165
1325.05	123
1325.49	159
1325.93	95
1326.37	167
1326.81	139
1327.25	121
1327.69	157
1328.13	77
1328.57	147
1329.02	133
1329.45	157
1329.9	85
1330.34	171
1330.78	93
1331.22	165
1331.66	121
1332.1	125
1332.54	155
1332.98	85
1333.42	163
1333.86	141
1334.3	139
1334.74	123
1335.18	155
1335.62	99
1336.07	157
1336.5	107
1336.95	131
1337.39	177
1337.83	103
1338.27	141
1338.71	147
1339.15	145
1339.59	119
1340.03	129
1340.47	115
1340.91	149
1341.35	113
1341.79	149
1342.23	157
1342.67	123
1343.11	137
1343.55	151
1343.99	139
1344.43	145
1344.86	133
1345.31	115
1345.74	155
1346.18	121
1346.62	111
1347.06	145
1347.5	97
1347.94	123
1348.38	133
1348.82	111
1349.26	159
1349.7	111
1350.14	137
1350.58	123
1351.02	115
1351.46	111
1351.9	143
1352.33	97
1352.77	109
1353.21	147
1353.65	123
1354.09	167
1354.53	79
1354.97	137
1355.41	131
1355.85	123
1356.29	127
1356.72	147
1357.16	95
1357.6	121
1358.04	149
1358.48	125
1358.92	167
1359.36	87
1359.79	147
1360.23	117
1360.67	145
1361.11	91
1361.55	145
1361.99	85
1362.43	123
1362.87	133
1363.3	95
1363.74	149
1364.18	55
1364.62	173
1365.06	103
1365.49	145
1365.93	93
1366.37	167
1366.81	93
1367.25	135
1367.68	139
1368.12	129
1368.56	171
1369	55
1369.44	155
1369.87	115
1370.31	139
1370.75	89
1371.19	157
1371.62	105
1372.06	159
1372.5	123
1372.94	95
1373.37	165
1373.81	77
1374.25	153
1374.69	113
1375.12	137
1375.56	93
1376	143
1376.44	75
1376.87	133
1377.31	105
1377.75	133
1378.19	171
1378.62	91
1379.06	151
1379.5	127
1379.93	143.222
1380.37	170.333
1380.81	176.778
1381.25	179.278
1381.68	156.078
1382.12	137
1382.56	117
1382.99	137
1383.43	77
1383.87	169
1384.3	135
1384.74	135
1385.18	99
1385.61	131
1386.05	95
1386.49	137
1386.92	105
1387.36	125
1387.8	131
1388.23	93
1388.67	145
1389.1	141
1389.54	119
1389.98	121
1390.41	115
1390.85	103
1391.29	143
1391.72	101
1392.16	115
1392.59	139
1393.03	109
1393.47	123
1393.9	145
1394.34	115
1394.77	133
1395.21	117
1395.65	137
1396.08	143
1396.52	107
1396.95	137
1397.39	141
1397.82	103
1398.26	125
1398.7	159
1399.13	107
1399.57	135
1400	89
1400.44	135
1400.87	117
1401.31	123
1401.74	99
1402.18	171
1402.62	103
1403.05	103
1403.49	139
1403.92	127
1404.36	169
1404.79	81
1405.23	155
1405.66	113
1406.1	139
1406.53	103
1406.97	125
1407.4	87
1407.84	115
1408.27	143
1408.71	97
1409.14	157
1409.58	83
1410.01	125
1410.45	119
1410.88	147
1411.31	117
1411.75	151
1412.18	91
1412.62	137
1413.05	145
1413.49	121
1413.92	173
1414.36	75
1414.79	129
1415.23	121
1415.66	141
1416.1	97
1416.53	159
1416.96	81
1417.4	141
1417.83	109
1418.27	103
1418.7	151
1419.13	67
1419.57	141
1420	103
1420.44	135
1420.87	91
1421.3	141
1421.74	91
1422.17	143
1422.61	117
1423.04	111
1423.47	147
1423.91	65
1424.34	139
1424.77	129
1425.21	129
1425.64	89
1426.07	127
1426.51	103
1426.94	133
1427.38	113
1427.81	121
1428.24	121
1428.68	107
1429.11	125
1429.54	121
1429.98	141
1430.41	117
1430.84	115
1431.28	109
1431.71	141
1432.14	99
1432.57	133
1433.01	133
1433.44	101
1433.87	141
1434.31	139
1434.74	121
1435.17	123
1435.61	103
1436.04	111
1436.47	129
1436.9	119
1437.34	119
1437.77	131
1438.2	97
1438.63	117
1439.07	131
1439.5	113
1439.93	157
1440.36	91
1440.8	133
1441.23	119
1441.66	113
1442.09	117
1442.53	133
1442.96	97
1443.39	119
1443.82	123
1444.26	97
1444.69	181
1445.12	93
1445.55	137
1445.98	109
1446.42	111
1446.85	103
1447.28	139
1447.71	97
1448.14	99
1448.57	125
1449.01	101
1449.44	153
1449.87	63
1450.3	135
1450.73	109
1451.17	137
1451.6	107
1452.03	137
1452.46	85
1452.89	105
1453.32	125
1453.76	85
1454.19	153
1454.62	39
1455.05	161
1455.48	107
1455.91	129
1456.34	105
1456.77	139
1457.21	91
1457.64	119
1458.07	119
1458.5	85.1274
1458.93	160.136
1459.36	44.8369
1459.79	151.998
1460.22	99.8824
1460.65	137.735
1461.08	118.185
1461.52	134.131
1461.95	88.9706
1462.38	129.438
1462.81	114.33
1463.24	99.4462
1463.67	132.662
1464.1	72.8947
1464.53	141.207
1464.96	109.747
1465.39	128.7
1465.82	103.028
1466.25	121.529
1466.68	96.308
1467.11	149.308
1467.54	121.733
1467.98	117.094
1468.41	136.745
1468.84	83.5686
1469.27	142.143
1469.7	116.506
1470.13	126.683
1470.56	92.9409
1470.99	132.562
1471.42	120.82
1471.85	133.859
1472.28	125.268
1472.71	104.788
1473.14	148.781
1473.57	102.426
1474	150.749
1474.43	109.241
1474.86	119.195
1475.29	104.314
1475.72	123.667
1476.15	113.412
1476.58	119.192
1477.01	121.958
1477.44	108.229
1477.87	140.801
1478.3	108.86
1478.72	127
1479.15	111.94
1479.58	113.373
1480.01	111.758
1480.44	113.151
1480.87	122.968
1481.3	115.069
1481.73	126.544
1482.16	106.293
1482.59	143.085
1483.02	111.128
1483.45	127.833
1483.88	118.003
1484.31	98.184
1484.74	124.187
1485.17	112.157
1485.59	114.358
1486.02	118.445
1486.45	127.052
1486.88	115.017
1487.31	132.447
1487.74	116.167
1488.17	128.287
1488.6	129.517
1489.02	118.918
1489.45	125.069
1489.88	117.915
1490.31	115.136
1490.74	115.486
1491.17	132.576
1491.6	117.033
1492.03	122.474
1492.45	109.155
1492.88	105.422
1493.31	125.26
1493.74	106.351
1494.17	117.516
1494.6	108.217
1495.02	119.052
1495.45	116.491
1495.88	132.497
1496.31	120.374
1496.74	118.58
1497.17	127.095
1497.59	115.266
1498.02	136.778
1498.45	117.437
1498.88	110.459
1499.31	115.022
1499.73	106.068
1500.16	104.784
1500.59	115.571
1501.02	116.72
1501.45	104.878
1501.87	126.204
1502.13	151
1502.56	99
1502.99	161
1503.43	81
1503.86	145
1504.29	117
1504.72	133
1505.16	111
1505.59	147
1506.02	93
1506.46	109
1506.89	141
1507.32	117
1507.75	161
1508.19	79
1508.62	141
1509.05	103
1509.49	153
1509.92	97
1510.35	153
1510.78	75
1511.21	129
1511.65	141
1512.08	107
1512.51	157
1512.94	57
1513.38	161
1513.81	113
1514.24	135
1514.67	95
1515.11	155
1515.54	73
1515.97	131
1516.4	123
1516.83	97
1517.27	163
1517.7	65
1518.13	141
1518.56	111
1518.99	131
1519.42	103
1519.86	139
1520.29	83
1520.72	141
1521.15	123
1521.58	119
1522.01	157
1522.45	95
1522.88	147
1523.31	129
1523.74	161
1524.17	103
1524.6	155
1525.04	81
1525.47	153
1525.9	109
1526.33	123
1526.76	137
1527.19	89
1527.62	143
1528.05	121
1528.49	141
1528.92	87
1529.35	137
1529.78	95
1530.21	141
1530.64	99
1531.07	123
1531.5	155
1531.93	121
1532.37	135
1532.8	121
1533.23	133
1533.66	115
1534.09	125
1534.52	113
1534.95	145
1535.38	101
1535.81	129
1536.24	157
1536.67	107
1537.1	131
1537.53	151
1537.96	111
1538.39	127
1538.82	97
1539.26	121
1539.68	147
1540.12	93
1540.55	117
1540.98	131
1541.41	95
1541.84	121
1542.27	133
1542.7	113
1543.13	139
1543.56	109
1543.99	119
1544.42	131
1544.85	107
1545.28	113
1545.71	137
1546.14	91
1546.57	119
1547	153
1547.43	131
1547.86	149
1548.29	97
1548.72	139
1549.14	121
1549.57	125
1550.01	97
1550.43	147
1550.86	111
1551.29	119
1551.72	149
1552.15	107
1552.58	147
1553.01	73
1553.44	149
1553.87	125
1554.3	155
1554.73	117
1555.16	155
1555.59	103
1556.01	127
1556.44	135
1556.87	109
1557.3	153
1557.73	101
1558.16	147
1558.59	135
1559.02	147
1559.45	103
1559.88	185
1560.3	109
1560.73	159
1561.16	135
1561.59	123
1562.02	157
1562.45	97
1562.88	171
1563.31	127
1563.73	169
1564.16	93
1564.59	159
1565.02	89
1565.45	151
1565.88	119
1566.3	145
1566.73	187
1567.16	87
1567.59	165
1568.02	131
1568.45	171
1568.88	127
1569.3	179
1569.73	97
1570.16	197
1570.59	127
1571.01	167
1571.44	149
1571.87	123
1572.3	179
1572.73	163
1573.15	183
1573.58	97
1574.01	183
1574.44	119
1574.87	177
1575.29	139
1575.72	173
1576.15	171
1576.58	165
1577	171
1577.43	173
1577.86	179
1578.29	123
1578.71	215
1579.14	137
1579.57	203
1580	169
1580.42	201
1580.85	201
1581.28	189
1581.71	213
1582.13	219
1582.56	229
1582.99	211
1583.41	237
1583.84	199
1584.27	243
1584.7	213
1585.12	239
1585.55	281
1585.98	237
1586.4	247
1586.83	285
1587.26	247
1587.68	261
1588.11	271
1588.54	219
1588.96	265
1589.39	215
1589.82	231
1590.24	265
1590.67	195
1591.1	195
1591.52	231
1591.95	213
1592.38	233
1592.8	195
1593.23	183
1593.65	183
1594.08	229
1594.51	203
1594.93	217
1595.36	175
1595.79	155
1596.21	161
1596.64	179
1597.06	163
1597.49	155
1597.92	151
1598.34	157
1598.77	169
1599.19	127
1599.62	189
1600.05	105
1600.47	137
1600.9	143
1601.32	151
1601.75	165
1602.18	113
1602.6	137
1603.03	161
1603.45	167
1603.88	107
1604.3	189
1604.73	93
1605.15	127
1605.58	147
1606	131
1606.43	135
1606.86	103
1607.28	123
1607.71	143
1608.13	167
1608.56	107
1608.98	199
1609.41	83
1609.83	149
1610.26	153
1610.68	145
1611.11	125
1611.53	105
1611.96	117
1612.38	117
1612.81	145
1613.23	79
1613.66	187
1614.08	83
1614.51	161
1614.93	111
1615.36	149
1615.78	129
1616.21	123
1616.63	133
1617.06	131
1617.48	163
1617.9	69
1618.33	177
1618.75	87
1619.18	185
1619.6	107
1620.03	137
1620.45	129
1620.88	129
1621.3	117
1621.72	147
1622.15	125
1622.57	107
1623	171
1623.42	85
1623.85	163
1624.27	95
1624.69	139
1625.12	109
1625.54	127
1625.97	99
1626.39	155
1626.81	127
1627.24	97
1627.66	165
1628.08	77
1628.51	155
1628.93	85
1629.36	145
1629.78	113
1630.2	109
1630.63	89
1631.05	139
1631.47	129
1631.9	113
1632.32	151
1632.74	91
1633.17	149
1633.59	111
1634.01	133
1634.44	133
1634.86	125
1635.28	101
1635.71	149
1636.13	133
1636.55	133
1636.98	147
1637.4	113
1637.82	133
1638.25	113
1638.67	117
1639.09	131
1639.51	133
1639.94	93
1640.36	145
1640.78	101
1641.21	117
1641.63	135
1642.05	103
1642.47	143
1642.9	129
1643.32	115
1643.74	147
1644.17	103
1644.59	95
1645.01	155
1645.43	135
1645.86	115
1646.28	135
1646.7	91
1647.12	143
1647.55	125
1647.97	117
1648.39	153
1648.81	93
1649.23	113
1649.66	131
1650.08	125
1650.5	111
1650.92	127
1651.35	107
1651.77	129
1652.19	139
1652.61	103
1653.03	169
1653.45	95
1653.88	119
1654.3	115
1654.72	135
1655.14	115
1655.56	125
1655.99	97
1656.41	139
1656.83	147
1657.25	89
1657.67	169
1658.09	75
1658.52	139
1658.94	111
1659.36	147
1659.78	99
1660.2	153
1660.62	95
1661.04	137
1661.47	125
1661.89	81
1662.31	161
1662.73	69
1663.15	161
1663.57	97
1663.99	145
1664.41	87
1664.83	141
1665.26	99
1665.68	127
1666.1	131
1666.52	67
1666.94	175
1667.36	91
1667.78	147
1668.2	97
1668.62	145
1669.04	105
1669.46	159
1669.89	69
1670.31	123
1670.73	101
1671.15	119
1671.57	149
1671.99	95
1672.41	127
1672.83	81
1673.25	155
1673.67	87
1674.09	145
1674.51	69
1674.93	155
1675.35	111
1675.77	115
1676.19	163
1676.61	109
1677.03	143
1677.45	87
1677.87	137
1678.29	107
1678.71	141
1679.13	63
1679.55	145
1679.97	117
1680.39	137
1680.81	131
1681.23	91
1681.65	135
1682.07	105
1682.49	113
1682.91	109
1683.33	121
1683.75	75
1684.17	125
1684.59	111
1685.01	129
1685.43	133
1685.85	103
1686.27	125
1686.69	145
1687.11	131
1687.53	121
1687.95	115
1688.37	99
1688.78	137
1689.2	115
1689.62	105
1690.04	115
1690.46	109
1690.88	123
1691.3	137
1691.72	89
1692.14	153
1692.56	101
1692.98	115
1693.39	125
1693.81	121
1694.23	85
1694.65	139
1695.07	93
1695.49	137
1695.91	123
1696.33	95
1696.75	131
1697.16	101
1697.58	123
1698	103
1698.42	139
1698.84	87
1699.26	147
1699.68	85
1700.09	123
1700.51	143
1700.93	77
1701.35	137
1701.77	89
1702.19	125
1702.6	109
1703.02	139
1703.44	93
1703.86	147
1704.28	81
1704.69	133
1705.11	123
1705.53	97
1705.95	139
1706.37	109
1706.78	151
1707.2	95
1707.62	137
1708.04	101
1708.46	175
1708.87	73
1709.29	155
1709.71	109
1710.13	111
1710.54	147
1710.96	101
1711.38	141
1711.8	87
1712.22	153
1712.63	87
1713.05	159
1713.47	71
1713.89	173
1714.3	145
1714.72	127
1715.14	129
1715.56	83
1715.97	127
1716.39	93
1716.81	151
1717.22	111
1717.64	161
1718.06	49
1718.48	147
1718.89	115
1719.31	125
1719.73	119
1720.14	91
1720.56	115
1720.98	109
1721.39	139
1721.81	77
1722.23	169
1722.64	79
1723.06	157
1723.48	105
1723.89	145
1724.31	147
1724.73	103
1725.14	101
1725.56	135
1725.98	151
1726.39	101
1726.81	141
1727.23	53
1727.64	169
1728.06	113
1728.48	117
1728.89	105
1729.31	95
1729.72	111
1730.14	123
1730.56	121
1730.97	99
1731.39	129
1731.8	71
1732.22	143
1732.64	115
1733.05	121
1733.47	121
1733.89	93
1734.3	107
1734.72	155
1735.13	103
1735.55	133
1735.96	133
1736.38	77
1736.8	135
1737.21	113
1737.63	121
1738.04	117
1738.46	107
1738.87	121
1739.29	133
1739.71	115
1740.12	125
1740.54	131
1740.95	97
1741.37	141
1741.78	127
1742.2	111
1742.61	125
1743.03	99
1743.44	119
1743.86	139
1744.27	91
1744.69	103
1745.1	109
1745.52	119
1745.93	121
1746.35	145
1746.77	87
1747.18	147
1747.59	81
1748.01	123
1748.42	147
1748.84	117
1749.25	135
1749.67	129.8
1750.08	153
1750.5	97
1750.91	135
1751.33	97
1751.74	161
1752.16	65
1752.57	137
1752.99	125
1753.4	117
1753.81	127
1754.23	111
1754.64	101
1755.06	93
1755.47	137
1755.89	87
1756.3	157
1756.72	55
1757.13	151
1757.54	103
1757.96	133
1758.37	103
1758.78	125
1759.2	107
1759.61	105
1760.03	155
1760.44	95
1760.86	171
1761.27	49
1761.68	157
1762.1	91
1762.51	135
1762.92	115
1763.34	137
1763.75	101
1764.17	117
1764.58	139
1764.99	83
1765.41	153
1765.82	53
1766.23	159
1766.65	97
1767.06	131
1767.47	89
1767.89	111
1768.3	81
1768.71	133
1769.13	117
1769.54	109
1769.95	131
1770.37	85
1770.78	159
1771.19	105
1771.61	139
1772.02	85
1772.43	117
1772.85	105
1773.26	135
1773.67	111
1774.09	125
1774.5	145
1774.91	75
1775.32	137
1775.74	105
1776.15	115
1776.56	87
1776.97	109
1777.39	115
1777.8	123
1778.21	103
1778.62	113
1779.04	125
1779.45	101
1779.86	119
1780.28	119
1780.69	123
1781.1	123
1781.51	123
1781.92	119
1782.34	123
1782.75	103
1783.16	133
1783.57	121
1783.99	101
1784.4	127
1784.81	133
1785.22	105
1785.63	123
1786.05	99
1786.46	103
1786.87	129
1787.28	99
1787.69	131
1788.11	147
1788.52	95
1788.93	121
1789.34	137
1789.75	121
1790.17	149
1790.58	81
1790.99	109
1791.4	119
1791.81	99
1792.22	105
1792.63	113
1793.05	87
1793.46	99
1793.87	129
1794.28	103
1794.69	159
1795.1	63
1795.52	121
1795.93	129
1796.34	127
1796.75	93
1797.16	115
1797.57	91
1797.98	105
1798.39	133
1798.81	77
1799.22	153
1799.63	61
1800.04	141
1800.45	97
1800.86	133
1801.27	93
1801.68	149
1802.09	89
1802.5	109
1802.91	131
1803.32	103
1803.73	159
1804.15	67
1804.56	145
1804.97	107
1805.38	161
1805.79	115
1806.2	143
1806.61	89
1807.02	117
1807.43	131
1807.84	99
1808.25	165
1808.66	33
1809.07	143
1809.48	103
1809.89	149
1810.3	77
1810.71	151
1811.12	77
1811.53	135
1811.94	113
1812.35	97
1812.76	137
1813.17	53
1813.58	137
1813.99	107
1814.4	139
1814.81	69
1815.22	127
1815.63	79
1816.04	151
1816.45	111
1816.86	107
1817.27	141
1817.68	61
1818.09	131
1818.5	97
1818.91	159
1819.32	89
1819.73	145
1820.14	77
1820.55	149
1820.96	99
1821.37	119
1821.78	143
1822.19	81
1822.6	143
1823.01	109
1823.42	141
1823.82	83
1824.23	145
1824.64	101
1825.05	129
1825.46	89
1825.87	117
1826.28	129
1826.69	77
1827.1	111
1827.51	111
1827.91	109
1828.32	113
1828.73	119
1829.14	95
1829.55	121
1829.96	81
1830.37	127
1830.78	141
1831.18	105
1831.59	105
1832	123
1832.41	115
1832.82	125
1833.23	111
1833.64	105
1834.05	131
1834.45	121
1834.86	117
1835.27	135
1835.68	93
1836.09	91
1836.49	121
1836.9	105
1837.31	125
1837.72	101
1838.13	105
1838.53	121
1838.94	99
1839.35	103
1839.76	161
1840.17	91
1840.58	103
1840.98	119
1841.39	107
1841.8	133
1842.21	93
1842.61	113
1843.02	99
1843.43	133
1843.84	97
1844.25	147
1844.65	77
1845.06	101
1845.47	131
1845.88	103
1846.28	124.915
1846.69	75.6146
1847.1	111.207
1847.51	102.949
1847.91	133.918
1848.32	84.1724
1848.73	149.934
1849.14	72.9635
1849.54	124.37
1849.95	111.537
1850.36	113.018
1850.77	135.061
1851.17	75.0749
1851.58	134.798
1851.99	99.7169
1852.39	130.598
1852.8	80.7362
1853.21	152.922
1853.62	72.7518
1854.02	139.168
1854.43	103.781
1854.84	120.046
1855.24	115.312
1855.65	95.8171
1856.06	122.345
1856.46	101.876
1856.87	135.136
1857.28	87.1502
1857.68	139.711
1858.09	77.2987
1858.5	133.46
1858.9	87.5438
1859.31	122.055
1859.72	112.573
1860.12	115.789
1860.53	116.226
1860.94	111.835
1861.34	120.766
1861.75	88.5844
1862.15	137.097
1862.56	74.5821
1862.97	141.262
1863.37	92.1416
1863.78	120.649
1864.19	97.5931
1864.59	120.777
1865	112.864
1865.4	123.046
1865.81	128.636
1866.22	103.069
1866.62	129.168
1867.03	81.3824
1867.43	142.672
1867.84	83.8704
1868.25	138.037
1868.65	106.975
1869.06	116.561
1869.46	105.688
1869.87	124.958
1870.28	123.68
1870.68	117.275
1871.09	122.85
1871.49	92.1479
1871.9	130.967
1872.3	95.352
1872.71	131.243
1873.12	110.895
1873.52	107.971
1873.93	105.444
1874.33	122.071
1874.74	116.554
1875.14	105.418
1875.55	106.769
1875.95	96.0368
1876.36	129.995
1876.76	109.373
1877.17	124.393
1877.57	112.228
1877.98	95.5874
1878.38	118.813
1878.79	130.437
1879.19	127.624
1879.6	124.897
1880	120.567
1880.41	104.331
1880.81	119.212
1881.22	105.993
1881.63	111.44
1882.03	104.241
1882.43	79.0497
1882.84	131.163
1883.24	125.292
1883.65	117.965
1884.05	103.077
1884.46	121.201
1884.86	88.1079
1885.27	126.073
1885.67	110.905
1886.08	118.596
1886.48	131.983
1886.89	88.1602
1887.29	133.241
1887.69	107.824
1888.1	115.557
1888.5	105.708
1888.85	143
1889.26	117
1889.67	135
1890.08	95
1890.49	125
1890.9	155
1891.3	99
1891.71	127
1892.12	133
1892.53	119
1892.94	105
1893.35	119
1893.76	85
1894.17	145
1894.58	77
1894.99	119
1895.4	135
1895.81	97
1896.22	119
1896.62	131
1897.03	103
1897.44	111
1897.85	109
1898.26	97
1898.67	125
1899.08	93
1899.49	97
1899.9	123
1900.3	93
1900.71	117
1901.12	123
1901.53	125
1901.94	135
1902.35	101
1902.75	115
1903.16	123
1903.57	121
1903.98	95
1904.39	147
1904.8	85
1905.21	101
1905.61	141
1906.02	115
1906.43	139
1906.84	63
1907.25	125
1907.66	105
1908.06	133
1908.47	93
1908.88	131
1909.29	89
1909.7	101
1910.1	133
1910.51	101
1910.92	121
1911.33	75
1911.73	123
1912.14	101
1912.55	133
1912.96	95
1913.37	125
1913.77	77
1914.18	143
1914.59	133
1915	113
1915.4	149
1915.81	69
1916.22	133
1916.63	117
1917.03	139
1917.44	79
1917.85	155
1918.26	79
1918.66	127
1919.07	131
1919.48	111
1919.89	137
1920.29	67
1920.7	139
1921.11	99
1921.51	117
1921.92	81
1922.33	149
1922.73	69
1923.14	133
1923.55	107
1923.96	121
1924.36	139
1924.77	91
1925.18	133
1925.58	119
1925.99	145
1926.4	93
1926.8	165
1927.21	77
1927.62	153
1928.02	107
1928.43	115
1928.84	157
1929.24	71
1929.65	131
1930.06	133
1930.46	111.3
1930.87	107
1931.28	114.5
1931.68	57
1932.09	161
1932.49	91
1932.9	105
1933.31	123
1933.71	67
1934.12	117
1934.53	121
1934.93	131
1935.34	73
1935.74	139
1936.15	75
1936.56	163
1936.96	85
1937.37	123
1937.78	131
1938.18	107
1938.59	115
1938.99	123
1939.4	115
1939.8	87
1940.21	133
1940.62	81
1941.02	143
1941.43	95
1941.83	137
1942.24	155
1942.64	103
1943.05	111
1943.45	125
1943.86	105
1944.27	117
1944.67	143
1945.08	81
1945.48	131
1945.89	85
1946.29	103
1946.7	127
1947.1	81
1947.51	111
1947.91	129
1948.32	105
1948.72	133
1949.13	115
1949.53	117
1949.94	131
1950.34	153
1950.75	121
1951.15	153
1951.56	95
1951.96	115
1952.37	131
1952.77	111
1953.18	147
1953.58	107
1953.99	111
1954.39	111
1954.8	121
1955.2	111
1955.61	143
1956.01	77
1956.42	101
1956.82	133
1957.23	107
1957.63	131
1958.03	87
1958.44	115
1958.84	121
1959.25	129
1959.65	87
1960.06	157
1960.46	61
1960.86	151
1961.27	135
1961.67	121
1962.08	129
1962.48	79
1962.89	133
1963.29	123
1963.69	157
1964.1	97
1964.5	181
1964.91	63
1965.31	151
1965.71	97
1966.12	135
1966.52	121
1966.93	79
1967.33	115
1967.73	101
1968.14	135
1968.54	59
1968.94	157
1969.35	69
1969.75	143
1970.15	101
1970.56	129
1970.96	127
1971.37	93
1971.77	117
1972.17	121
1972.58	133
1972.98	83
1973.38	163
1973.79	79
1974.19	177
1974.59	109
1974.99	117
1975.4	121
1975.8	107
1976.21	127
1976.61	117
1977.01	131
1977.41	79
1977.82	157
1978.22	65
1978.62	151
1979.03	71
1979.43	125
1979.83	117
1980.24	97
1980.64	107
1981.04	121
1981.44	127
1981.85	87
1982.25	153
1982.65	75
1983.05	143
1983.46	85
1983.86	125
1984.26	117
1984.66	105
1985.07	107
1985.47	147
1985.87	109
1986.27	103
1986.68	137
1987.08	89
1987.48	151
1987.88	91
1988.29	123
1988.69	127
1989.09	119
1989.49	101
1989.89	153
1990.3	109
1990.7	115
1991.1	119
1991.5	89
1991.9	133
1992.31	99
1992.71	109
1993.11	135
1993.51	91
1993.91	103
1994.32	123
1994.72	123
1995.12	127
1995.52	137
1995.92	109
1996.32	127
1996.73	133
1997.13	121
1997.53	163
1997.93	103
1998.33	121
1998.73	145
1999.14	123
1999.54	121
1999.94	97
2000.34	101
2000.74	109
2001.14	135
2001.54	81
2001.94	143
2002.35	83
2002.75	111
2003.15	111
2003.55	97
2003.95	119
2004.35	87
2004.75	101
2005.15	121
2005.55	145
2005.96	99
2006.36	153
2006.76	71
2007.16	135
2007.56	123
2007.96	127
2008.36	105
2008.76	101
2009.16	109
2009.56	125
2009.96	141
2010.36	87
2010.76	185
2011.16	61
2011.57	157
2011.97	115
2012.37	131
2012.77	123
2013.17	95
2013.57	125
2013.97	117
2014.37	131
2014.77	77
2015.17	187
2015.57	73
2015.97	151
2016.37	97
2016.77	119
2017.17	125
2017.57	115
2017.97	111
2018.37	123
2018.77	121
2019.17	71
2019.57	161
2019.97	79
2020.37	137
2020.77	93
2021.17	151
2021.57	121
2021.97	125
2022.37	87
2022.77	155
2023.17	127
2023.57	73
2023.97	163
2024.37	73
2024.77	143
2025.17	89
2025.57	153
2025.97	103
2026.37	119
2026.77	95
2027.16	135
2027.56	127
2027.96	77
2028.36	159
2028.76	67
2029.16	133
2029.56	91
2029.96	135
2030.36	129
2030.76	121
2031.16	107
2031.56	129
2031.96	125
2032.35	97
2032.75	153
2033.15	95
2033.55	137
2033.95	91
2034.35	131
2034.75	125
2035.15	121
2035.54	85
2035.94	143
2036.34	105
2036.74	113
2037.14	141
2037.54	81
2037.94	143
2038.34	103
2038.74	119
2039.13	129
2039.53	107
2039.93	87
2040.33	127
2040.73	127
2041.12	117
2041.52	127
2041.92	89
2042.32	131
2042.72	101
2043.12	131
2043.51	139
2043.91	107
2044.31	87
2044.71	121
2045.11	135
2045.51	123
2045.9	117
2046.3	99
2046.7	129
2047.1	139
2047.49	111
2047.89	139
2048.29	99
2048.69	87
2049.09	123
2049.48	119
2049.88	135
2050.28	97
2050.68	127
2051.07	127
2051.47	133
2051.87	77
2052.27	143
2052.67	75
2053.06	111
2053.46	121
2053.86	127
2054.26	105
2054.65	111
2055.05	97
2055.45	121
2055.85	137
2056.24	81
2056.64	163
2057.04	85
2057.43	143
2057.83	117
2058.23	125
2058.62	95
2059.02	139
2059.42	93
2059.82	115
2060.21	141
2060.61	69
2061.01	173
2061.4	75
2061.8	145
2062.2	119
2062.59	141
2062.99	89
2063.39	131
2063.79	93
2064.18	129
2064.58	115
2064.97	85
2065.37	153
2065.77	85
2066.16	137
2066.56	77
2066.96	145
2067.35	91
2067.75	143
2068.15	89
2068.54	147
2068.94	117
2069.34	99
2069.73	147
2070.13	89
2070.52	145
2070.92	81
2071.32	153
2071.71	87
2072.11	141
2072.51	83
2072.9	153
2073.3	111
2073.69	91
2074.09	171
2074.49	69
2074.88	141
2075.28	99
2075.67	141
2076.07	105
2076.47	123
2076.86	59
2077.26	151
2077.65	119
2078.05	121
2078.44	149
2078.84	89
2079.23	153
2079.63	103
2080.03	129
2080.42	95
2080.82	137
2081.21	75
2081.61	139
2082	119
2082.4	131
2082.79	141
2083.19	97
2083.58	125
2083.98	103
2084.37	135
2084.77	89
2085.16	139
2085.56	59
2085.95	147
2086.35	111
2086.74	123
2087.14	131
2087.53	95
2087.93	135
2088.32	107
2088.72	111
2089.11	107
2089.51	119
2089.9	77
2090.3	147
2090.69	115
2091.09	99
2091.48	137
2091.88	89
2092.27	133
2092.67	131
2093.06	111
2093.46	133
2093.85	115
2094.25	95
2094.64	139
2095.03	121
2095.43	111
2095.82	135
2096.22	95
2096.61	119
2097.01	139
2097.4	101
2097.79	123
2098.19	103
2098.58	103
2098.98	151
2099.37	119
2099.76	93
2100.16	115
2100.55	95
2100.95	123
2101.34	129
2101.73	97
2102.13	135
2102.52	87
2102.92	107
2103.31	127
2103.7	129
2104.1	101
2104.49	137
2104.88	101
2105.28	137
2105.67	119
2106.07	103
2106.46	155
2106.85	105
2107.25	115
2107.64	109
2108.03	133
2108.43	101
2108.82	133
2109.21	83
2109.61	129
2110	115
2110.39	71
2110.79	149
2111.18	85
2111.57	123
2111.97	125
2112.36	129
2112.75	91
2113.15	149
2113.54	89
2113.93	135
2114.32	115
2114.72	95
2115.11	137
2115.5	83
2115.9	127
2116.29	99
2116.68	135
2117.08	75
2117.47	157
2117.86	85
2118.25	165
2118.65	119
2119.04	119
2119.43	153
2119.82	91
2120.22	141
2120.61	83
2121	145
2121.39	93
2121.79	147
2122.18	51
2122.57	159
2122.96	111
2123.36	107
2123.75	145
2124.14	83
2124.53	109
2124.93	101
2125.32	135
2125.71	95
2126.1	149
2126.49	55
2126.89	161
2127.28	107
2127.67	137
2128.06	119
2128.45	105
2128.85	125
2129.24	127
2129.63	135
2130.02	89
2130.41	137
2130.81	69
2131.2	157
2131.59	107
2131.98	129
2132.37	131
2132.76	109
2133.16	115
2133.55	115
2133.94	121
2134.33	115
2134.72	107
2135.11	77
2135.5	137
2135.9	125
2136.29	111
2136.68	121
2137.07	109
2137.46	103
2137.85	141
2138.24	117
2138.63	129
2139.03	113
2139.42	91
2139.81	137
2140.2	115
2140.59	127
2140.98	115
2141.37	103
2141.76	143
2142.15	111
2142.55	87
2142.94	109
2143.33	111
2143.72	105
2144.11	117
2144.5	115
2144.89	87
2145.28	119
2145.67	77
2146.06	127
2146.45	115
2146.84	97
2147.23	129
2147.62	115
2148.02	119
2148.4	93
2148.8	149
2149.19	81
2149.58	147
2149.97	77
2150.36	121
2150.75	105
2151.14	95
2151.53	131
2151.92	99
2152.31	113
2152.7	95
2153.09	145
2153.48	67
2153.87	161
2154.26	69
2154.65	145
2155.04	109
2155.43	117
2155.82	117
2156.21	129
2156.6	119
2156.99	91
2157.38	119
2157.77	91
2158.16	155
2158.55	45
2158.94	151
2159.33	87
2159.72	135
2160.11	111
2160.5	117
2160.89	99
2161.28	101
2161.66	135
2162.05	91
2162.44	185
2162.83	53
2163.22	143
2163.61	111
2164	139
2164.39	101
2164.78	105
2165.17	111
2165.56	111
2165.95	145
2166.34	83
2166.73	173
2167.11	53
2167.5	155
2167.89	95
2168.28	119
2168.67	103
2169.06	111
2169.45	119
2169.84	121
2170.23	121
2170.62	97
2171	131
2171.39	71
2171.78	153
2172.17	113
2172.56	141
2172.95	113
2173.34	115
2173.73	103
2174.11	135
2174.5	129
2174.89	125
2175.28	135
2175.67	85
2176.06	149
2176.45	107
2176.83	101
2177.22	113
2177.61	117
2178	115
2178.39	125
2178.78	101
2179.16	111
2179.55	119
2179.94	75
2180.33	127
2180.72	113
2181.1	111
2181.49	113
2181.88	111
2182.27	107
2182.66	129
2183.04	95
2183.43	125
2183.82	113
2184.21	115
2184.6	125
2184.98	109
2185.37	113
2185.76	123
2186.15	91
2186.53	103
2186.92	119
2187.31	87
2187.7	123
2188.08	111
2188.47	113
2188.86	111
2189.25	115
2189.63	97
2190.02	141
2190.41	83
2190.8	113
2191.18	109
2191.57	99
2191.96	109
2192.34	125
2192.73	109
2193.12	95
2193.51	115
2193.89	83
2194.28	139
2194.67	53
2195.06	131
2195.44	101
2195.83	113
2196.22	131
2196.6	117
2196.99	119
2197.38	93
2197.76	135
2198.15	87
2198.54	159
2198.92	45
2199.31	127
2199.7	87
2200.08	107
2200.47	107
2200.86	111
2201.24	109
2201.63	113
2202.02	139
2202.4	95
2202.79	155
2203.18	57
2203.56	143
2203.95	99
2204.34	129
2204.72	101
2205.11	131
2205.49	77
2205.88	115
2206.27	121
2206.65	75
2207.04	163
2207.43	49
2207.81	143
2208.2	91
2208.58	143
2208.97	99
2209.36	131
2209.74	99
2210.13	127
2210.51	123
2210.9	103
2211.29	163
2211.67	35
2212.06	145
2212.44	103
2212.83	131
2213.21	79
2213.6	127
2213.98	95
2214.37	139
2214.76	109
2215.14	109
2215.53	131
2215.91	83.1798
2216.3	148.567
2216.69	103.474
2217.07	125.006
2217.46	84.9504
2217.84	118.919
2218.23	89.012
2218.61	134.968
2219	99.3272
2219.38	118.25
2219.77	125.597
2220.15	66.0954
2220.54	144.469
2220.92	119.428
2221.31	130.242
2221.69	103.62
2222.08	114.765
2222.46	100.494
2222.85	125.576
2223.23	100.096
2223.62	105.93
2224	142.197
2224.39	104.656
2224.77	127.64
2225.16	113.017
2225.54	94.9444
2225.93	111.069
2226.31	91.5206
2226.7	115.464
2227.08	113.358
2227.47	108.425
2227.85	96.4203
2228.23	124.028
2228.62	108.465
2229	128.178
2229.39	122.364
2229.77	96.0917
2230.16	136.259
2230.54	89.3404
2230.92	122.605
2231.31	112.55
2231.69	110.942
2232.08	115.608
2232.46	136.76
2232.85	104.04
2233.23	115.011
2233.62	122.899
2234	103.286
2234.38	123.009
2234.77	88.146
2235.15	123.468
2235.54	105.753
2235.92	117.121
2236.3	113.737
2236.69	136.175
2237.07	107.741
2237.46	119.56
2237.84	115.264
2238.22	98.1194
2238.61	129.621
2238.99	85.7554
2239.37	118.821
2239.76	107.479
2240.14	115.909
2240.53	118.494
2240.91	119.831
2241.29	100.846
2241.68	110.759
2242.06	133.202
2242.44	103.476
2242.83	130.589
2243.21	99.2103
2243.59	123.134
2243.98	120.323
2244.36	89.8533
2244.74	128.28
2245.13	120.437
2245.51	121.622
2245.89	97.4731
2246.28	121.31
2246.66	107.292
2247.04	143.673
2247.43	111.236
2247.81	117.027
2248.19	132.696
2248.58	69.7732
2248.96	124.572
2249.34	126.441
2249.73	124.434
2250.11	99.2744
2250.49	138.598
2250.88	90.5844
2251.26	154.551
2251.64	90.5794
2252.02	123.927
2252.41	134.249
2252.79	76.5854
2252.8	75
2253.18	129
2253.57	109
2253.96	137
2254.35	85
2254.74	129
2255.12	69
2255.51	137
2255.9	91
2256.29	109
2256.67	135
2257.06	61
2257.45	129
2257.84	109
2258.22	119
2258.61	97
2259	121
2259.39	93
2259.77	141
2260.16	107
2260.55	111
2260.94	141
2261.32	95
2261.71	99
2262.1	131
2262.48	111
2262.87	105
2263.26	115
2263.65	109
2264.03	149
2264.42	97
2264.81	111
2265.19	125
2265.58	83
2265.97	115
2266.35	121
2266.74	101
2267.13	117
2267.51	117
2267.9	109
2268.29	129
2268.67	83
2269.06	105
2269.45	133
2269.83	93
2270.22	107
2270.61	119
2270.99	109
2271.38	135
2271.77	97
2272.15	115
2272.54	111
2272.93	117
2273.31	97
2273.7	141
2274.08	95
2274.47	97
2274.86	133
2275.24	105
2275.63	137
2276.02	81
2276.4	117
2276.79	97
2277.17	129
2277.56	95
2277.95	137
2278.33	81
2278.72	101
2279.1	129
2279.49	117
2279.88	125
2280.26	67
2280.65	123
2281.03	105
2281.42	139
2281.8	99
2282.19	167
2282.58	71
2282.96	149
2283.35	127
2283.73	113
2284.12	139
2284.5	77
2284.89	123
2285.28	105
2285.66	155
2286.05	65
2286.43	167
2286.82	57
2287.2	135
2287.59	123
2287.97	129
2288.36	133
2288.74	89
2289.13	131
2289.51	117
2289.9	145
2290.28	71
2290.67	155
2291.05	77
2291.44	131
2291.82	111
2292.21	111
2292.59	119
2292.98	79
2293.36	117
2293.75	109
2294.13	151
2294.52	67
2294.9	155
2295.29	71
2295.67	151
2296.06	93
2296.44	125
2296.83	135
2297.21	109
2297.6	113
2297.98	111
2298.36	123
2298.75	81
2299.13	173
2299.52	65
2299.9	157
2300.29	83
2300.67	105
2301.06	133
2301.44	101
2301.82	107
2302.21	119
2302.59	115
2302.98	85
2303.36	135
2303.75	77
2304.13	119
2304.51	87
2304.9	125
2305.28	141
2305.67	105
2306.05	113
2306.44	149
2306.82	117
2307.2	121
2307.59	147
2307.97	91
2308.35	135
2308.74	103
2309.12	133
2309.51	153
2309.89	111
2310.27	91
2310.66	137
2311.04	109
2311.42	99
2311.81	133
2312.19	75
2312.57	117
2312.96	107
2313.34	123
2313.73	113
2314.11	117
2314.49	111
2314.88	133
2315.26	117
2315.64	127
2316.03	107
2316.41	113
2316.79	131
2317.18	115
2317.56	105
2317.94	159
2318.32	101
2318.71	121
2319.09	131
2319.47	123
2319.86	115
2320.24	111
2320.62	93
2321.01	127
2321.39	123
2321.77	103
2322.15	157
2322.54	83
2322.92	115
2323.3	129
2323.69	101
2324.07	121
2324.45	93
2324.83	129
2325.22	133
2325.6	137
2325.98	81
2326.36	147
2326.75	65
2327.13	133
2327.51	119
2327.89	123
2328.28	131
2328.66	95
2329.04	121
2329.42	115
2329.81	141
2330.19	81
2330.57	159
2330.95	75
2331.33	161
2331.72	97
2332.1	125
2332.48	127
2332.86	95
2333.24	111
2333.63	109
2334.01	133
2334.39	67
2334.77	157
2335.15	69
2335.54	159
2335.92	125
2336.3	133
2336.68	113
2337.06	109
2337.44	123
2337.83	113
2338.21	141
2338.59	83
2338.97	175
2339.35	79
2339.73	157
2340.12	117
2340.5	135
2340.88	125
2341.26	113
2341.64	107
2342.02	145
2342.41	131
2342.79	71
2343.17	163
2343.55	81
2343.93	155
2344.31	93
2344.69	149
2345.07	117
2345.45	125
2345.84	109
2346.22	121
2346.6	135
2346.98	85
2347.36	147
2347.74	61
2348.12	137
2348.5	91
2348.88	131
2349.26	113
2349.65	107
2350.03	93
2350.41	115
2350.79	109
2351.17	99
2351.55	145
2351.93	85
2352.31	133
2352.69	101
2353.07	141
2353.45	115
2353.83	145
2354.21	81
2354.59	141
2354.98	107
2355.35	123
2355.74	125
2356.12	73
2356.5	123
2356.88	103
2357.26	141
2357.64	129
2358.02	111
2358.4	67
2358.78	137
2359.16	117
2359.54	141
2359.92	141
2360.3	93
2360.68	113
2361.06	127
2361.44	105
2361.82	125
2362.2	99
2362.58	87
2362.96	125
2363.34	119
2363.72	127
2364.1	121
2364.48	111
2364.86	129
2365.24	117
2365.62	95
2366	129
2366.38	89
2366.75	105
2367.14	127
2367.51	109
2367.89	111
2368.27	109
2368.65	105
2369.03	131
2369.41	131
2369.79	97
2370.17	153
2370.55	81
2370.93	119
2371.31	115
2371.69	129
2372.07	115
2372.45	121
2372.83	99
2373.2	135
2373.58	139
2373.96	87
2374.34	157
2374.72	89
2375.1	149
2375.48	125
2375.86	127
2376.24	103
2376.61	113
2376.99	107
2377.37	135
2377.75	133
2378.13	85
2378.51	155
2378.89	79
2379.27	127
2379.65	97
2380.02	121
2380.4	89
2380.78	157
2381.16	91
2381.54	139
2381.92	123
2382.3	87
2382.67	163
2383.05	75
2383.43	133
2383.81	85
2384.19	159
2384.57	91
2384.94	161
2385.32	93
2385.7	157
2386.08	133
2386.46	101
2386.83	167
2387.21	89
2387.59	153
2387.97	85
2388.35	149
2388.73	91
2389.1	137
2389.48	93
2389.86	145
2390.24	131
2390.62	101
2390.99	145
2391.37	79
2391.75	163
2392.13	77
2392.5	119
2392.88	113
2393.26	157
2393.64	69
2394.01	139
2394.39	113
2394.77	113
2395.15	117
2395.52	87
2395.9	125
2396.28	113
2396.66	153
2397.04	115
2397.41	169
2397.79	73
2398.17	155
2398.54	119
2398.92	119
2399.3	145
2399.68	83
2400.05	135
2400.43	107
2400.81	133
2401.18	101
2401.56	143
2401.94	83
2402.32	163
2402.69	121
2403.07	105
2403.45	135
2403.82	93
2404.2	129
2404.58	107
2404.95	127
2405.33	91
2405.71	123
2406.09	87
2406.46	139
2406.84	111
2407.22	117
2407.59	127
2407.97	105
2408.34	119
2408.72	133
2409.1	139
2409.47	129
2409.85	135
2410.23	95
2410.6	165
2410.98	129
2411.36	131
2411.73	113
2412.11	93
2412.49	127
2412.86	117
2413.24	111
2413.61	127
2413.99	131
2414.37	83
2414.74	131
2415.12	111
2415.5	111
2415.87	121
2416.25	91
2416.62	143
2417	145
2417.37	101
2417.75	125
2418.13	113
2418.5	121
2418.88	135
2419.25	157
2419.63	111
2420.01	131
2420.38	93
2420.76	123
2421.13	133
2421.51	99
2421.88	153
2422.26	111
2422.64	123
2423.01	135
2423.39	139
2423.76	105
2424.14	131
2424.51	75
2424.89	129
2425.26	129
2425.64	113
2426.01	172
2426.39	172.8
2426.76	145.16
2427.14	133
2427.52	135
2427.89	91
2428.26	161
2428.64	95
2429.02	147
2429.39	111
2429.77	99
2430.14	151
2430.52	121
2430.89	153
2431.26	117
2431.64	163
2432.02	101
2432.39	175
2432.77	71
2433.14	149
2433.51	119
2433.89	119
2434.26	141
2434.64	103
2435.01	129
2435.39	115
2435.76	143
2436.14	101
2436.51	171
2436.89	81
2437.26	163
2437.63	141
2438.01	139
2438.38	135
2438.76	121
2439.13	121
2439.51	121
2439.88	139
2440.26	117
2440.63	187
2441	53
2441.38	163
2441.75	125
2442.13	167
2442.5	145
2442.87	145
2443.25	99
2443.62	129
2444	153
2444.37	103
2444.74	179
2445.12	67
2445.49	175
2445.87	117
2446.24	143
2446.61	103
2446.99	115
2447.36	115
2447.73	141
2448.11	121
2448.48	127
2448.86	157
2449.23	59
2449.6	167
2449.98	129
2450.35	135
2450.72	137
2451.1	137
2451.47	121
2451.84	157
2452.22	127
2452.59	117
2452.97	147
2453.34	97
2453.71	137
2454.08	105
2454.46	127
2454.83	123
2455.2	115
2455.58	109
2455.95	151
2456.32	113
2456.7	137
2457.07	145
2457.44	85
2457.82	139
2458.19	129
2458.56	121
2458.93	133
2459.31	97
2459.68	117
2460.05	135
2460.43	95
2460.8	115
2461.17	149
2461.54	105
2461.92	137
2462.29	123
2462.66	81
2463.03	133
2463.41	91
2463.78	123
2464.15	125
2464.52	111
2464.9	131
2465.27	135
2465.64	107
2466.01	123
2466.39	131
2466.76	101
2467.13	161
2467.5	101
2467.88	131
2468.25	135
2468.62	131
2468.99	113
2469.37	143
2469.74	107
2470.11	111
2470.48	127
2470.85	99
2471.22	173
2471.6	73
2471.97	153
2472.34	103
2472.71	131
2473.08	135
2473.46	149
2473.83	97
2474.2	123
2474.57	141
2474.94	111
2475.32	169
2475.69	79
2476.06	135
2476.43	111
2476.8	131
2477.17	115
2477.55	141
2477.92	95
2478.29	103
2478.66	139
2479.03	101
2479.4	163
2479.77	67
2480.15	141
2480.52	109
2480.89	137
2481.26	93
2481.63	147
2482	107
2482.37	151
2482.74	137
2483.12	103
2483.49	159
2483.86	53
2484.23	149
2484.6	109
2484.97	161
2485.34	97
2485.71	139
2486.08	107
2486.46	157
2486.83	121
2487.2	113
2487.57	177
2487.94	61
2488.31	131
2488.68	91
2489.05	139
2489.42	89
2489.79	137
2490.16	77
2490.53	131
2490.9	125
2491.27	99
2491.64	151
2492.01	51
2492.38	139
2492.76	101
2493.13	139
2493.5	95
2493.87	131
2494.24	97
2494.61	151
2494.98	109
2495.35	125
2495.72	149
2496.09	101
2496.46	137
2496.83	101
2497.2	123
2497.57	91
2497.94	149
2498.31	89
2498.68	141
2499.05	83
2499.42	119
2499.79	137
2500.16	83
2500.53	125
2500.9	103
2501.27	139
2501.64	95
2502.01	117
2502.38	111
2502.75	147
2503.12	91
2503.49	117
2503.86	145
2504.23	83
2504.6	117
2504.97	127
2505.34	125
2505.7	127
2506.07	117
2506.44	101
2506.81	125
2507.18	115
2507.55	121
2507.92	143
2508.29	115
2508.66	133
2509.03	123
2509.4	133
2509.77	163
2510.14	123
2510.5	111
2510.88	135
2511.24	101
2511.61	113
2511.98	137
2512.35	91
2512.72	101
2513.09	137
2513.46	119
2513.83	121
2514.2	79
2514.56	121
2514.93	117
2515.3	135
2515.67	99
2516.04	157
2516.41	79
2516.78	113
2517.15	143
2517.51	115
2517.88	153
2518.25	71
2518.62	127
2518.99	117
2519.36	127
2519.73	81
2520.09	165
2520.46	65
2520.83	133
2521.2	125
2521.57	103
2521.94	133
2522.3	69
2522.67	115
2523.04	115
2523.41	129
2523.78	71
2524.15	137
2524.51	61
2524.88	135
2525.25	107
2525.62	143
2525.98	139
2526.35	99
2526.72	147
2527.09	125
2527.46	149
2527.83	73
2528.19	183
2528.56	69
2528.93	167
2529.3	95
2529.66	137
2530.03	113
2530.4	91
2530.77	129
2531.13	117
2531.5	121
2531.87	55
2532.24	169
2532.61	81
2532.97	153
2533.34	99
2533.71	115
2534.07	131
2534.44	111
2534.81	125
2535.18	121
2535.54	129
2535.91	91
2536.28	157
2536.65	89
2537.01	153
2537.38	91
2537.75	117
2538.11	127
2538.48	95
2538.85	101
2539.22	139
2539.58	129
2539.95	97
2540.32	147
2540.68	85
2541.05	147
2541.42	95
2541.78	117
2542.15	113
2542.52	101
2542.89	111
2543.25	127
2543.62	119
2543.99	103
2544.35	149
2544.72	91
2545.08	139
2545.45	93
2545.82	105
2546.19	139
2546.55	109
2546.92	89
2547.28	119
2547.65	121
2548.02	129
2548.38	129
2548.75	99
2549.12	131
2549.48	127
2549.85	111
2550.21	149
2550.58	95
2550.95	89
2551.31	137
2551.68	103
2552.05	129
2552.41	109
2552.78	101
2553.14	123
2553.51	123
2553.88	93
2554.24	141
2554.61	87
2554.97	119
2555.34	123
2555.71	111
2556.07	121
2556.44	105
2556.8	103
2557.17	131
2557.53	133
2557.9	77
2558.27	151
2558.63	83
2559	111
2559.36	115
2559.73	105
2560.09	129
2560.46	111
2560.82	115
2561.19	119
2561.55	139
2561.92	77
2562.29	143
2562.65	65
2563.02	121
2563.38	135
2563.75	115
2564.11	119
2564.48	97
2564.84	109
2565.21	129
2565.57	126.694
2565.94	95.516
2566.3	148.339
2566.67	90.2981
2567.03	123.801
2567.4	97.7809
2567.76	137.768
2568.13	104.734
2568.49	105.16
2568.86	114.824
2569.22	114.157
2569.59	126.789
2569.95	78.0107
2570.32	173.831
2570.68	91.2143
2571.05	146.068
2571.41	94.9182
2571.78	124.32
2572.14	110.642
2572.51	116.384
2572.87	104.892
2573.23	127.382
2573.6	124.607
2573.96	87.4
2574.33	156.4
2574.69	79.8341
2575.06	142.253
2575.42	105.664
2575.79	132.943
2576.15	112.571
2576.51	120.307
2576.88	106.36
2577.24	127.211
2577.61	119.176
2577.97	100.676
2578.34	140.133
2578.7	94.732
2579.06	130.434
2579.43	87.1174
2579.79	124.146
2580.16	108.224
2580.52	133.725
2580.88	102.741
2581.25	135.968
2581.61	117.29
2581.98	107.565
2582.34	137.02
2582.7	100.717
2583.07	139.136
2583.43	101.695
2583.8	133.853
2584.16	115.655
2584.52	133.596
2584.89	103.701
2585.25	135.398
2585.61	132.362
2585.98	109.634
2586.34	126.245
2586.7	90.8417
2587.07	125.803
2587.43	110.419
2587.8	132.029
2588.16	118.269
2588.52	135.515
2588.88	100.214
2589.25	123.89
2589.61	134.581
2589.97	107.162
2590.34	136.205
2590.7	100.426
2591.06	124.443
2591.43	124.364
2591.79	112.594
2592.15	113.338
2592.52	138.889
2592.88	119.475
2593.24	129.253
2593.61	134.477
2593.97	105.651
2594.33	132.326
2594.7	102.143
2595.06	127.306
2595.42	139.354
2595.78	97.8851
2596.15	105.047
2596.51	128.159
2596.87	109.642
2597.24	115.614
2597.6	130.455
2597.96	115.233
2598.32	134.539
2598.69	133.828
2599.05	117.542
2599.41	150.232
2599.78	115.164
2600.14	98.3179
2600.5	149.271
2600.86	124.891
2600.95	113
2601.31	147
2601.68	119
2602.05	109
2602.42	133
2602.78	123
2603.15	119
2603.52	171
2603.89	109
2604.25	115
2604.62	139
2604.99	149
2605.35	133
2605.72	105
2606.09	115
2606.46	139
2606.82	135
2607.19	97
2607.56	163
2607.92	71
2608.29	149
2608.66	125
2609.03	137
2609.39	129
2609.76	123
2610.13	133
2610.49	143
2610.86	157
2611.23	101
2611.59	175
2611.96	91
2612.33	179
2612.69	131
2613.06	135
2613.43	109
2613.79	147
2614.16	107
2614.53	159
2614.89	149
2615.26	95
2615.62	189
2615.99	105
2616.36	163
2616.72	121
2617.09	179
2617.46	115
2617.82	153
2618.19	105
2618.56	133
2618.92	147
2619.29	103
2619.65	173
2620.02	83
2620.39	173
2620.75	117
2621.12	171
2621.48	97
2621.85	171
2622.22	119
2622.58	161
2622.95	153
2623.31	107
2623.68	193
2624.04	117
2624.41	175
2624.78	119
2625.14	163
2625.51	145
2625.87	181
2626.24	99
2626.6	179
2626.97	169
2627.34	147
2627.7	197
2628.07	129
2628.43	189
2628.8	117
2629.16	189
2629.53	141
2629.9	185
2630.26	97
2630.63	195
2630.99	153
2631.36	159
2631.72	171
2632.09	141
2632.45	185
2632.82	145
2633.18	183
2633.55	163
2633.91	185
2634.28	127
2634.64	195
2635.01	163
2635.37	157
2635.74	209
2636.1	147
2636.47	207
2636.83	171
2637.2	191
2637.56	181
2637.93	183
2638.29	119
2638.66	193
2639.02	187
2639.39	181
2639.75	183
2640.12	177
2640.48	197
2640.84	215
2641.21	181
2641.57	213
2641.94	201
2642.3	163
2642.67	223
2643.03	213
2643.4	195
2643.76	199
2644.13	183
2644.49	229
2644.85	229
2645.22	213
2645.58	209
2645.95	197
2646.31	211
2646.68	211
2647.04	215
2647.4	175
2647.77	279
2648.13	203
2648.5	239
2648.86	225
2649.22	201
2649.59	239
2649.95	211
2650.32	213
2650.68	229
2651.04	225
2651.41	241
2651.77	253
2652.14	209
2652.5	241
2652.86	249
2653.23	219
2653.59	285
2653.95	239
2654.32	241
2654.68	235
2655.05	259
2655.41	233
2655.77	275
2656.14	217
2656.5	271
2656.86	257
2657.23	221
2657.59	271
2657.95	249
2658.32	251
2658.68	239
2659.04	311
2659.41	239
2659.77	283
2660.13	193
2660.5	291
2660.86	251
2661.22	239
2661.59	265
2661.95	229
2662.31	255
2662.68	215
2663.04	303
2663.4	221
2663.76	329
2664.13	203
2664.49	295
2664.85	279
2665.22	251
2665.58	295
2665.94	257
2666.3	255
2666.67	239
2667.03	323
2667.39	267
2667.76	315
2668.12	251
2668.48	295
2668.84	227
2669.21	269
2669.57	267
2669.93	253
2670.29	257
2670.66	221
2671.02	269
2671.38	233
2671.74	295
2672.11	189
2672.47	301
2672.83	229
2673.19	249
2673.56	235
2673.92	235
2674.28	227
2674.64	247
2675	257
2675.37	233
2675.73	289
2676.09	171
2676.45	269
2676.81	223
2677.18	235
2677.54	221
2677.9	215
2678.26	229
2678.62	259
2678.99	261
2679.35	233
2679.71	247
2680.07	187
2680.43	239
2680.8	237
2681.16	215
2681.52	185
2681.88	215
2682.24	165
2682.6	243
2682.97	191
2683.33	211
2683.69	209
2684.05	163
2684.41	223
2684.77	193
2685.13	199
2685.5	185
2685.86	195
2686.22	185
2686.58	221
2686.94	199
2687.3	201
2687.66	209
2688.03	149
2688.39	203
2688.75	187
2689.11	183
2689.47	235
2689.83	155
2690.19	199
2690.55	227
2690.91	177
2691.28	167
2691.64	195
2692	159
2692.36	171
2692.72	211
2693.08	149
2693.44	205
2693.8	141
2694.16	179
2694.52	169
2694.88	145
2695.24	167
2695.61	181
2695.97	151
2696.33	177
2696.69	175
2697.05	159
2697.41	193
2697.77	101
2698.13	179
2698.49	169
2698.85	145
2699.21	181
2699.57	201
2699.93	131
2700.29	133
2700.65	175
2701.01	133
2701.37	207
2701.73	107
2702.09	177
2702.45	141
2702.81	163
2703.18	129
2703.53	165
2703.89	131
2704.25	127
2704.62	173
2704.98	127
2705.33	199
2705.69	93
2706.06	157
2706.42	139
2706.78	175
2707.13	119
2707.49	169
2707.85	117
2708.22	149
2708.57	155
2708.93	139
2709.29	183
2709.65	97
2710.01	161
2710.37	139
2710.73	153
2711.09	119
2711.45	183
2711.81	103
2712.17	161
2712.53	151
2712.89	129
2713.25	179
2713.61	109
2713.97	177
2714.33	123
2714.69	171
2715.05	99
2715.41	157
2715.76	69
2716.12	145
2716.48	117
2716.84	139
2717.2	163
2717.56	69
2717.92	145
2718.28	115
2718.64	141
2719	111
2719.35	167
2719.71	101
2720.07	149
2720.43	121
2720.79	143
2721.15	145
2721.51	119
2721.87	131
2722.23	157
2722.59	139
2722.94	101
2723.3	151
2723.66	91
2724.02	177
2724.38	115
2724.74	135
2725.1	141
2725.46	115
2725.81	137
2726.17	125
2726.53	133
2726.89	105
2727.25	169
2727.61	97
2727.96	167
2728.32	111
2728.68	117
2729.04	151
2729.4	117
2729.75	131
2730.11	129
2730.47	133
2730.83	99
2731.19	151
2731.55	95
2731.91	155
2732.26	117
2732.62	151
2732.98	145
2733.34	99
2733.69	119
2734.05	135
2734.41	123
2734.77	117
2735.13	131
2735.48	103
2735.84	159
2736.2	109
2736.56	153
2736.91	139
2737.27	121
2737.63	137
2737.99	137
2738.35	111
2738.7	125
2739.06	115
2739.42	107
2739.78	119
2740.13	127
2740.49	117
2740.85	163
2741.21	105
2741.56	117
2741.92	127
2742.28	135
2742.64	137
2742.99	107
2743.35	127
2743.71	133
2744.06	135
2744.42	107
2744.78	145
2745.14	75
2745.49	105
2745.85	135
2746.21	127
2746.57	135
2746.92	101
2747.28	119
2747.64	97
2747.99	139
2748.35	105
2748.71	163
2749.06	83
2749.42	135
2749.78	135
2750.13	135
2750.49	137
2750.85	89
2751.2	115
2751.56	131
2751.92	143
2752.27	95
2752.63	177
2752.99	83
2753.34	157
2753.7	119
2754.06	153
2754.41	103
2754.77	105
2755.13	121
2755.48	129
2755.84	137
2756.2	81
2756.55	175
2756.91	75
2757.26	157
2757.62	113
2757.98	137
2758.33	133
2758.69	121
2759.04	109
2759.4	147
2759.76	121
2760.11	79
2760.47	177
2760.83	85
2761.18	165
2761.54	103
2761.89	153
2762.25	127
2762.61	139
2762.96	125
2763.32	141
2763.67	115
2764.03	105
2764.38	169
2764.74	73
2765.1	149
2765.45	77
2765.81	147
2766.16	121
2766.52	143
2766.88	91
2767.23	163
2767.59	133
2767.94	121
2768.3	157
2768.65	87
2769.01	147
2769.36	85
2769.72	139
2770.07	113
2770.43	123
2770.78	89
2771.14	139
2771.49	135
2771.85	113
2772.21	143
2772.56	99
2772.92	137
2773.27	109
2773.63	111
2773.98	127
2774.34	139
2774.69	109
2775.05	135
2775.4	119
2775.76	133
2776.11	143
2776.47	83
2776.82	107
2777.18	117
2777.53	117
2777.89	127
2778.24	113
2778.59	71
2778.95	145
2779.3	113
2779.66	109
2780.01	133
2780.37	97
2780.72	129
2781.08	127
2781.43	99
2781.79	125
2782.14	97
2782.49	149
2782.85	159
2783.2	149
2783.56	107
2783.91	117
2784.27	95
2784.62	121
2784.98	139
2785.33	95
2785.68	145
2786.04	93
2786.39	131
2786.75	123
2787.1	139
2787.46	103
2787.81	137
2788.16	123
2788.52	141
2788.87	131
2789.22	97
2789.58	167
2789.93	95
2790.29	127
2790.64	123
2790.99	147
2791.35	85
2791.7	153
2792.06	85
2792.41	147
2792.76	123
2793.12	81
2793.47	135
2793.82	79
2794.18	141
2794.53	95
2794.88	143
2795.24	95
2795.59	169
2795.95	67
2796.3	143
2796.65	101
2797.01	93
2797.36	145
2797.71	91
2798.07	133
2798.42	93
2798.77	147
2799.13	99
2799.48	157
2799.83	65
2800.19	133
2800.54	119
2800.89	113
2801.24	137
2801.6	103
2801.95	133
2802.3	101
2802.66	159
2803.01	103
2803.36	153
2803.72	73
2804.07	147
2804.42	91
2804.77	105
2805.13	131
2805.48	105
2805.83	139
2806.19	107
2806.54	151
2806.89	73
2807.24	161
2807.6	49
2807.95	137
2808.3	99
2808.65	133
2809.01	139
2809.36	93
2809.71	111
2810.06	93
2810.42	153
2810.77	91
2811.12	139
2811.47	55
2811.83	175
2812.18	111
2812.53	123
2812.88	139
2813.24	97
2813.59	111
2813.94	125
2814.29	121
2814.64	111
2815	137
2815.35	69
2815.7	165
2816.05	111
2816.4	135
2816.76	107
2817.11	101
2817.46	113
2817.81	125
2818.16	127
2818.52	113
2818.87	131
2819.22	75
2819.57	131
2819.92	113
2820.28	119
2820.63	111
2820.98	87
2821.33	101
2821.68	115
2822.03	105
2822.39	121
2822.74	121
2823.09	85
2823.44	135
2823.79	123
2824.14	103
2824.49	125
2824.85	85
2825.2	125
2825.55	143
2825.9	123
2826.25	115
2826.6	125
2826.95	89
2827.31	125
2827.66	165
2828.01	91
2828.36	139
2828.71	81
2829.06	123
2829.41	125
2829.76	89
2830.11	125
2830.46	125
2830.82	107
2831.17	103
2831.52	133
2831.87	101
2832.22	151
2832.57	69
2832.92	137
2833.27	115
2833.62	109
2833.97	115
2834.32	109
2834.68	93
2835.03	95
2835.38	125
2835.73	117
2836.08	183
2836.43	65
2836.78	141
2837.13	113
2837.48	125
2837.83	97
2838.18	113
2838.53	117
2838.88	109
2839.23	161
2839.58	75
2839.93	165
2840.28	37
2840.63	133
2840.98	101
2841.33	149
2841.68	103
2842.03	115
2842.38	103
2842.73	113
2843.08	125
2843.43	97
2843.78	141
2844.13	57
2844.48	161
2844.83	115
2845.18	135
2845.53	97
2845.88	145
2846.23	71
2846.58	163
2846.93	119
2847.28	87
2847.63	159
2847.98	45
2848.33	157
2848.68	85
2849.03	135
2849.38	83
2849.73	143
2850.08	85
2850.43	155
2850.78	115
2851.13	103
2851.48	155
2851.83	65
2852.18	141
2852.53	109
2852.88	141
2853.23	87
2853.57	131
2853.92	83
2854.27	127
2854.62	105
2854.97	121
2855.32	135
2855.67	93
2856.02	135
2856.37	117
2856.72	145
2857.07	87
2857.42	129
2857.76	89
2858.11	149
2858.46	101
2858.81	125
2859.16	139
2859.51	97
2859.86	147
2860.21	125
2860.56	123
2860.91	87
2861.25	121
2861.6	79
2861.95	143
2862.3	89
2862.65	109
2863	127
2863.35	85
2863.69	123
2864.04	107
2864.39	123
2864.74	93
2865.09	127
2865.44	95
2865.78	145
2866.13	95
2866.48	115
2866.83	125
2867.18	101
2867.53	99
2867.88	135
2868.22	109
2868.57	127
2868.92	131
2869.27	105
2869.62	141
2869.96	95
2870.31	129
2870.66	123
2871.01	89
2871.36	105
2871.7	143
2872.05	109
2872.4	109
2872.75	105
2873.1	97
2873.44	123
2873.79	121
2874.14	101
2874.49	157
2874.84	77
2875.18	111
2875.53	123
2875.88	103
2876.23	127
2876.57	93
2876.92	105
2877.27	103
2877.62	117
2877.97	89
2878.31	155
2878.66	79
2879.01	121
2879.36	133
2879.7	99
2880.05	149
2880.4	117
2880.74	127
2881.09	121
2881.44	141
2881.79	99
2882.13	153
2882.48	73
2882.83	121
2883.18	117
2883.52	105
2883.87	115
2884.22	81
2884.56	119
2884.91	109
2885.26	125
2885.61	89
2885.95	155
2886.3	53
2886.65	137
2886.99	125
2887.34	137
2887.69	127
2888.03	79
2888.38	109
2888.73	115
2889.07	141
2889.42	69
2889.77	161
2890.11	51
2890.46	137
2890.81	111
2891.15	113
2891.5	121
2891.85	87
2892.19	111
2892.54	105
2892.89	139
2893.23	71
2893.58	153
2893.93	67
2894.27	147
2894.62	95
2894.96	139
2895.31	111
2895.66	85
2896	117
2896.35	118.99
2896.7	132.578
2897.04	52.2456
2897.39	157.116
2897.73	74.8458
2898.08	140.043
2898.43	90.5919
2898.77	126.411
2899.12	118.518
2899.46	102.958
2899.81	120.874
2900.16	112.165
2900.5	139.381
2900.85	80.6284
2901.19	152.674
2901.54	73.3509
2901.88	141.656
2902.23	89.4132
2902.58	127.939
2902.92	105.546
2903.27	115.785
2903.61	98.7896
2903.96	124.421
2904.31	113.917
2904.65	97.2867
2905	129.838
2905.34	105.506
2905.69	140.161
2906.03	90.5882
2906.38	123.659
2906.72	132.058
2907.07	111.098
2907.42	87.8293
2907.76	139.517
2908.11	100.836
2908.45	121.603
2908.8	106.712
2909.14	108.911
2909.49	118.38
2909.83	93.4431
2910.18	116.036
2910.52	114.7
2910.87	108.865
2911.21	83.21
2911.56	133.897
2911.9	100.206
2912.25	131.127
2912.59	89.009
2912.94	96.8709
2913.28	120.387
2913.63	109.431
2913.97	119.486
2914.32	127.665
2914.66	107.9
2915.01	97.4198
2915.35	153.963
2915.7	119.212
2916.04	128.235
2916.39	87.3522
2916.73	98.3941
2917.08	122.402
2917.42	123.538
2917.77	103.482
2918.11	135.217
2918.46	99.8975
2918.8	98.0395
2919.15	113.703
2919.49	117.256
2919.83	133.056
2920.18	100.55
2920.52	88.9065
2920.87	118.092
2921.21	128.708
2921.56	113.645
2921.9	124.827
2922.24	95.2443
2922.59	102.971
2922.93	121.899
2923.28	112.23
2923.62	113.482
2923.97	104.794
2924.31	91.7831
2924.65	126.416
2925	113.645
2925.34	103.656
2925.69	107.805
2926.03	115.065
2926.38	111.815
2926.72	137.48
2927.06	111.345
2927.41	117.699
2927.75	119.836
2928.09	84.876
2928.44	126.85
2928.78	117.237
2929.13	127.413
2929.47	84.6397
2929.81	117.42
2930.16	100.536
2930.5	138.677
2930.79	117
2931.14	103
2931.49	125
2931.84	71
2932.19	113
2932.54	115
2932.88	125
2933.23	103
2933.58	133
2933.93	79
2934.28	161
2934.63	103
2934.97	133
2935.32	135
2935.67	111
2936.02	101
2936.37	131
2936.71	129
2937.06	123
2937.41	113
2937.76	89
2938.11	133
2938.46	77
2938.8	127
2939.15	151
2939.5	91
2939.85	117
2940.19	111
2940.54	103
2940.89	115
2941.24	101
2941.59	93
2941.93	131
2942.28	103
2942.63	111
2942.98	125
2943.32	73
2943.67	97
2944.02	141
2944.37	115
2944.72	147
2945.06	101
2945.41	133
2945.76	109
2946.11	133
2946.45	111
2946.8	141
2947.15	101
2947.49	97
2947.84	145
2948.19	109
2948.54	143
2948.88	99
2949.23	99
2949.58	125
2949.93	141
2950.27	123
2950.62	159
2950.97	71
2951.31	115
2951.66	129
2952.01	115
2952.35	145
2952.7	87
2953.05	99
2953.4	121
2953.74	123
2954.09	85
2954.44	157
2954.78	77
2955.13	141
2955.48	125
2955.82	123
2956.17	141
2956.52	95
2956.86	119
2957.21	123
2957.56	155
2957.9	73
2958.25	155
2958.6	65
2958.94	131
2959.29	123
2959.64	123
2959.98	127
2960.33	75
2960.68	109
2961.02	93
2961.37	131
2961.72	73
2962.06	165
2962.41	67
2962.76	121
2963.1	109
2963.45	137
2963.79	111
2964.14	95
2964.49	113
2964.83	115
2965.18	127
2965.52	77
2965.87	171
2966.22	63
2966.56	163
2966.91	91
2967.25	123
2967.6	133
2967.95	107
2968.29	115
2968.64	119
2968.98	139
2969.33	75
2969.68	171
2970.02	71
2970.37	153
2970.71	81
2971.06	121
2971.4	129
2971.75	113
2972.1	97
2972.44	121
2972.79	101
2973.13	91
2973.48	149
2973.82	83
2974.17	131
2974.51	99
2974.86	133
2975.21	117
2975.55	119
2975.9	91
2976.24	137
2976.59	107
2976.93	117
2977.28	123
2977.62	93
2977.97	161
2978.31	89
2978.66	113
2979	117
2979.35	107
2979.69	87
2980.04	131
2980.38	117
2980.73	93
2981.07	109
2981.42	79
2981.76	137
2982.11	101
2982.45	127
2982.8	131
2983.14	99
2983.49	85
2983.83	127
2984.18	111
2984.52	111
2984.87	121
2985.21	121
2985.56	121
2985.9	145
2986.25	113
2986.59	157
2986.94	109
2987.28	101
2987.62	155
2987.97	107
2988.31	97
2988.66	113
2989	113
2989.35	131
2989.69	137
2990.03	87
2990.38	143
2990.72	73
2991.07	115
2991.41	117
2991.76	121
2992.1	89
2992.44	115
2992.79	85
2993.13	135
2993.48	155
2993.82	79
2994.17	157
2994.51	87
2994.85	123
2995.2	107
2995.54	145
2995.89	89
2996.23	151
2996.57	97
2996.92	143
2997.26	145
2997.6	81
2997.95	149
2998.29	85
2998.64	149
2998.98	99
2999.32	147
2999.67	87
