#Acq. time (s)=	30
#Accumulations=	1
#Range (cm-¹)=	1050...3000 (30 s) 
#Windows=	6
#Auto scanning=	Off
#Autofocus=	Off
#AutoExposure=	Off
#Spike filter=	Off
#Delay time (s)=	0
#Binning=	1
#Readout mode=	Signal
#DeNoise=	Off
#ICS correction=	Off
#Dark correction=	Off
#Inst. Process=	Off
#Detector Gain=	High Sensitivity
#Detector ADC=	45 kHz       
#Detector temperature (°C)=	-60.1
#Instrument=	LabRAM
#Detector=	Syncerity
#Objective=	x50LWD
#Grating=	1800
#Filter=	25%
#Laser (nm)=	532
#Hole=	100
#E-Cal_Neon=	0
#StageXY=	Marzhauser
#StageZ=	Marzhauser
#X (µm)=	0
#Y (µm)=	0
#Z (µm)=	-1678.85
#Spectral res.(cm-¹)=	1.9
#Full time(mm:ss)=	3:09
#AC=	Not calibrated
#Project=	
#Sample=	
#Site=	
#Title=	Spot 1 RT reverse
#Remark=	
#Date=	19.02.2026 13:45
#Acquired=	19.02.2026 13:45:56
#Edit:Spike=	19.02.2026 13:48:51
#AxisType[0]=Intens
#AxisUnit[0]=Cnt
#AxisType[1]=Spectr
#AxisUnit[1]=1/cm
1050.13	145
1050.59	125
1051.05	145
1051.51	97
1051.97	151
1052.44	91
1052.9	151
1053.36	141
1053.82	101
1054.28	185
1054.74	115
1055.2	171
1055.67	119
1056.13	161
1056.59	119
1057.05	155
1057.51	85
1057.97	151
1058.43	131
1058.89	133
1059.36	173
1059.82	117
1060.28	181
1060.74	91
1061.2	173
1061.66	107
1062.12	171
1062.58	117
1063.04	153
1063.5	141
1063.96	119
1064.43	155
1064.89	89
1065.35	167
1065.81	111
1066.27	149
1066.73	119
1067.19	149
1067.65	99
1068.11	159
1068.57	133
1069.03	139
1069.49	155
1069.95	113
1070.41	145
1070.87	111
1071.33	147
1071.79	147
1072.25	161
1072.71	91
1073.17	149
1073.63	119
1074.09	127
1074.55	133
1075.01	97
1075.47	141
1075.93	139
1076.39	149
1076.85	141
1077.31	153
1077.77	77
1078.23	181
1078.69	139
1079.15	131
1079.61	159
1080.07	101
1080.53	141
1080.99	121
1081.45	139
1081.91	129
1082.37	115
1082.83	111
1083.29	171
1083.75	137
1084.21	129
1084.66	151
1085.12	101
1085.58	147
1086.04	139
1086.5	115
1086.96	167
1087.42	121
1087.88	129
1088.34	147
1088.8	147
1089.25	129
1089.71	135
1090.17	123
1090.63	143
1091.09	145
1091.55	125
1092.01	171
1092.47	105
1092.92	149
1093.38	141
1093.84	149
1094.3	109
1094.76	167
1095.22	125
1095.68	155
1096.13	137
1096.59	103
1097.05	161
1097.51	79
1097.97	171
1098.43	115
1098.88	151
1099.34	95
1099.8	141
1100.26	115
1100.72	133
1101.17	145
1101.63	101
1102.09	169
1102.55	95
1103.01	177
1103.46	99
1103.92	151
1104.38	117
1104.84	167
1105.29	93
1105.75	145
1106.21	139
1106.67	97
1107.12	195
1107.58	109
1108.04	163
1108.5	113
1108.95	149
1109.41	123
1109.87	145
1110.33	87
1110.78	139
1111.24	141
1111.7	123
1112.16	181
1112.61	97
1113.07	167
1113.53	111
1113.98	161
1114.44	113
1114.9	153
1115.35	87
1115.81	187
1116.27	121
1116.72	115
1117.18	173
1117.64	109
1118.1	165
1118.55	97
1119.01	157
1119.47	115
1119.92	153
1120.38	93
1120.84	171
1121.29	135
1121.75	125
1122.2	153
1122.66	91
1123.12	177
1123.57	133
1124.03	167
1124.49	115
1124.94	113
1125.4	91
1125.86	165
1126.31	149
1126.77	163
1127.22	143
1127.68	113
1128.14	161
1128.59	139
1129.05	153
1129.5	129
1129.96	127
1130.41	99
1130.87	155
1131.33	127
1131.78	133
1132.24	136.6
1132.69	121
1133.15	147
1133.61	137
1134.06	147
1134.52	145
1134.97	129
1135.43	115
1135.88	127
1136.34	125
1136.79	121
1137.25	149
1137.7	121
1138.16	133
1138.61	131
1139.07	121
1139.52	119.8
1139.98	93
1140.43	121
1140.89	135
1141.34	151
1141.8	121
1142.25	127
1142.71	129
1143.16	147
1143.62	141
1144.07	91
1144.53	115.9
1144.98	91
1145.44	109.5
1145.89	127
1146.35	129
1146.8	131
1147.26	147
1147.71	115
1148.16	141
1148.62	157
1149.07	111
1149.53	134.2
1149.98	105
1150.44	157
1150.89	115
1151.35	153
1151.8	131
1152.25	133
1152.71	123
1153.16	119
1153.62	153
1154.07	101
1154.52	111.267
1154.98	83
1155.43	100.333
1155.89	117
1156.34	114.867
1156.79	135
1157.25	139
1157.7	127
1158.16	141
1158.61	122.6
1159.06	89
1159.52	117
1159.97	79
1160.42	105.8
1160.88	95
1161.33	149
1161.78	135
1162.24	120.5
1162.69	103
1163.14	124.1
1163.6	155
1164.05	107
1164.5	128
1164.96	87
1165.41	115.2
1165.86	97
1166.32	157
1166.77	129
1167.22	141
1167.68	109
1168.13	157
1168.58	119
1169.04	129
1169.49	127
1169.94	103
1170.39	115
1170.85	101
1171.3	119.4
1171.75	133
1172.2	145
1172.66	89
1173.11	151
1173.56	127
1174.01	143
1174.47	138.2
1174.92	113
1175.37	157
1175.82	107
1176.28	145
1176.73	141
1177.18	131
1177.63	143
1178.09	144.6
1178.54	155
1178.99	153
1179.44	157
1179.89	101
1180.35	135
1180.8	149
1181.25	139
1181.7	149
1182.15	119
1182.61	105
1183.06	153
1183.51	119
1183.96	135
1184.41	113
1184.87	101
1185.32	157
1185.77	159
1186.22	105
1186.67	163
1187.12	101
1187.58	129
1188.03	145
1188.48	147
1188.93	123
1189.38	123
1189.83	129
1190.28	165
1190.73	173
1191.19	93
1191.64	169
1192.09	87
1192.54	157
1192.99	123
1193.44	151
1193.89	119
1194.34	125
1194.8	123
1195.25	135
1195.7	163
1196.15	109
1196.6	123
1197.05	85
1197.5	125.8
1197.95	141
1198.4	171
1198.85	125
1199.3	145
1199.75	127
1200.2	137
1200.66	141
1201.11	85
1201.56	169
1202.01	79
1202.46	153
1202.91	105
1203.36	135
1203.81	125
1204.26	145
1204.71	119
1205.16	163
1205.61	141
1206.06	87
1206.51	179
1206.96	69
1207.41	175
1207.86	95
1208.31	167
1208.76	131
1209.21	147
1209.66	105
1210.11	147
1210.56	143
1211.01	103
1211.46	179
1211.91	73
1212.36	173
1212.81	101
1213.26	151
1213.71	137
1214.16	139
1214.61	109
1215.05	141
1215.51	135
1215.95	135
1216.4	155
1216.85	105
1217.3	157
1217.75	101
1218.2	131
1218.65	149
1219.1	127
1219.55	103
1220	149
1220.45	139
1220.9	115
1221.34	147
1221.79	89
1222.24	155
1222.69	111
1223.14	141
1223.59	139
1224.04	123
1224.49	105
1224.94	159
1225.38	137
1225.83	119
1226.28	143
1226.73	101
1227.18	159
1227.63	117
1228.07	143
1228.52	147
1228.97	101
1229.42	121
1229.87	147
1230.32	137
1230.76	127
1231.21	125
1231.66	137
1232.11	159
1232.56	151
1233.01	137
1233.45	163
1233.9	113
1234.35	131
1234.8	141
1235.25	117
1235.69	157
1236.14	125
1236.59	135
1237.04	143
1237.49	163
1237.93	125
1238.38	169
1238.83	105
1239.28	119
1239.72	143
1240.17	149
1240.62	135
1241.07	103
1241.51	137
1241.96	141
1242.41	147
1242.86	81
1243.3	169
1243.75	83
1244.2	149
1244.65	151
1245.09	135
1245.54	139
1245.99	119
1246.44	139
1246.88	153
1247.33	177
1247.78	111
1248.22	203
1248.67	97
1249.12	171
1249.56	133
1250.01	149
1250.46	149
1250.9	107
1251.35	155
1251.8	117
1252.24	163
1252.69	79
1253.14	193
1253.58	81
1254.03	159
1254.48	123
1254.92	137
1255.37	137
1255.82	127
1256.26	125
1256.71	143
1257.15	159
1257.6	87
1258.05	187
1258.49	85
1258.94	185
1259.39	121
1259.83	169
1260.28	137
1260.72	139
1261.17	145
1261.62	139
1262.06	147
1262.51	93
1262.95	179
1263.4	79
1263.85	169
1264.29	105
1264.74	145
1265.18	167
1265.63	117
1266.07	121
1266.52	137
1266.97	129
1267.41	113
1267.86	167
1268.3	107
1268.75	157
1269.19	105
1269.64	155
1270.08	137
1270.53	131
1270.97	133
1271.42	143
1271.86	155
1272.31	129
1272.76	151
1273.2	119
1273.64	155
1274.09	137
1274.53	145
1274.98	151
1275.42	123
1275.87	147
1276.31	151
1276.76	135
1277.2	155
1277.65	149
1278.09	125
1278.54	149
1278.98	147
1279.43	145
1279.87	161
1280.32	105
1280.76	117
1281.21	147
1281.65	150.12
1282.09	188
1282.54	193.6
1282.98	163
1283.43	145
1283.87	167
1284.32	121
1284.76	165
1285.21	93
1285.65	149
1286.09	151
1286.54	143
1286.98	159
1287.42	121
1287.87	135
1288.31	161
1288.76	173
1289.2	103
1289.64	183
1290.09	97
1290.53	175
1290.98	171
1291.42	149
1291.86	181
1292.31	129
1292.75	139
1293.19	137
1293.64	143
1294.08	87
1294.53	177
1294.97	91
1295.41	159
1295.85	141
1296.3	165
1296.74	161
1297.19	143
1297.63	117
1298.07	157
1298.51	151
1298.96	109
1299.4	181
1299.84	81
1300.29	177
1300.73	127
1301.17	167
1301.62	155
1302.06	99
1302.5	143
1302.94	141
1303.39	153
1303.83	79
1304.27	181
1304.72	89
1305.16	177
1305.6	107
1306.04	145
1306.49	143
1306.93	127
1307.37	137
1307.81	125
1308.26	129
1308.7	99
1309.14	185
1309.58	123
1310.03	177
1310.47	121
1310.91	153
1311.35	169
1311.8	131
1312.24	139
1312.68	165
1313.12	141
1313.56	119
1314	171
1314.45	113
1314.89	165
1315.33	123
1315.77	141
1316.22	163
1316.66	113
1317.1	135
1317.54	165
1317.98	149
1318.43	135
1318.87	145
1319.31	115
1319.75	165
1320.19	115
1320.63	141
1321.07	161
1321.51	117
1321.96	149
1322.4	145
1322.84	149
1323.28	149
1323.72	137
1324.16	145
1324.6	163
1325.05	145
1325.49	147
1325.93	167
1326.37	127
1326.81	139
1327.25	155
1327.69	149
1328.13	157
1328.57	121
1329.02	143
1329.45	145
1329.9	173
1330.34	125
1330.78	177
1331.22	121
1331.66	125
1332.1	163
1332.54	145
1332.98	163
1333.42	123
1333.86	161
1334.3	127
1334.74	179
1335.18	133
1335.62	187
1336.07	121
1336.5	157
1336.95	171
1337.39	149
1337.83	181
1338.27	131
1338.71	189
1339.15	161
1339.59	209
1340.03	135
1340.47	213
1340.91	97
1341.35	185
1341.79	167
1342.23	159
1342.67	195
1343.11	119
1343.55	179
1343.99	157
1344.43	177
1344.86	109
1345.31	201
1345.74	121
1346.18	183
1346.62	167
1347.06	165
1347.5	189
1347.94	131
1348.38	185
1348.82	163
1349.26	203
1349.7	121
1350.14	197
1350.58	143
1351.02	219
1351.46	155
1351.9	165
1352.33	187
1352.77	131
1353.21	183
1353.65	143
1354.09	189
1354.53	123
1354.97	201
1355.41	125
1355.85	213
1356.29	137
1356.72	149
1357.16	185
1357.6	121
1358.04	159
1358.48	133
1358.92	141
1359.36	111
1359.79	187
1360.23	119
1360.67	175
1361.11	117
1361.55	143
1361.99	169
1362.43	117
1362.87	145
1363.3	165
1363.74	135
1364.18	151
1364.62	169
1365.06	135
1365.49	185
1365.93	111
1366.37	149
1366.81	161
1367.25	125
1367.68	141
1368.12	143
1368.56	151
1369	155
1369.44	117
1369.87	139
1370.31	165
1370.75	119
1371.19	127
1371.62	177
1372.06	111
1372.5	147
1372.94	141
1373.37	137
1373.81	165
1374.25	119
1374.69	155
1375.12	151
1375.56	159
1376	135
1376.44	179
1376.87	105
1377.31	125
1377.75	173
1378.19	137
1378.62	161
1379.06	113
1379.5	159
1379.93	137
1380.37	147
1380.81	133
1381.25	171
1381.68	115
1382.12	125
1382.56	145
1382.99	123
1383.43	167
1383.87	93
1384.3	171
1384.74	151
1385.18	173
1385.61	117
1386.05	181
1386.49	73
1386.92	139
1387.36	151
1387.8	131
1388.23	183
1388.67	81
1389.1	177
1389.54	133
1389.98	163
1390.41	107
1390.85	173
1391.29	75
1391.72	175
1392.16	127
1392.59	127
1393.03	187
1393.47	73
1393.9	177
1394.34	103
1394.77	145
1395.21	107
1395.65	165
1396.08	113
1396.52	187
1396.95	129
1397.39	131
1397.82	175
1398.26	81
1398.7	173
1399.13	147
1399.57	159
1400	109
1400.44	175
1400.87	115
1401.31	153
1401.74	135
1402.18	143
1402.62	173
1403.05	119
1403.49	165
1403.92	137
1404.36	163
1404.79	101
1405.23	147
1405.66	123
1406.1	169
1406.53	131
1406.97	119
1407.4	147
1407.84	113
1408.27	157
1408.71	137
1409.14	149
1409.58	107
1410.01	139
1410.45	109
1410.88	155
1411.31	111
1411.75	141
1412.18	161
1412.62	99
1413.05	145
1413.49	153
1413.92	161
1414.36	179
1414.79	117
1415.23	123
1415.66	153
1416.1	113
1416.53	111
1416.96	163
1417.4	121
1417.83	143
1418.27	153
1418.7	121
1419.13	137
1419.57	139
1420	135
1420.44	155
1420.87	119
1421.3	155
1421.74	155
1422.17	119
1422.61	137
1423.04	141
1423.47	135
1423.91	169
1424.34	103
1424.77	141
1425.21	135
1425.64	143
1426.07	133
1426.51	157
1426.94	119
1427.38	127
1427.81	145
1428.24	115
1428.68	169
1429.11	87
1429.54	149
1429.98	137
1430.41	145
1430.84	133
1431.28	151
1431.71	117
1432.14	111
1432.57	157
1433.01	99
1433.44	177
1433.87	71
1434.31	163
1434.74	119
1435.17	147
1435.61	147
1436.04	131
1436.47	135
1436.9	125
1437.34	159
1437.77	113
1438.2	191
1438.63	71
1439.07	161
1439.5	127
1439.93	151
1440.36	125
1440.8	149
1441.23	103
1441.66	147
1442.09	139
1442.53	107
1442.96	179
1443.39	87
1443.82	171
1444.26	117
1444.69	191
1445.12	129
1445.55	149
1445.98	103
1446.42	151
1446.85	145
1447.28	125
1447.71	177
1448.14	59
1448.57	157
1449.01	127
1449.44	159
1449.87	109
1450.3	151
1450.73	125
1451.17	155
1451.6	149
1452.03	121
1452.46	143
1452.89	93
1453.32	173
1453.76	127
1454.19	149
1454.62	107
1455.05	131
1455.48	129
1455.91	161
1456.34	121
1456.77	131
1457.21	149
1457.64	107
1458.07	147
1458.5	131.02
1458.93	144.963
1459.36	121.365
1459.79	163.888
1460.22	124.818
1460.65	158.738
1461.08	110.524
1461.52	124.724
1461.95	143.369
1462.38	115.411
1462.81	174.035
1463.24	122.368
1463.67	137.072
1464.1	135.916
1464.53	122.979
1464.96	124.497
1465.39	138.273
1465.82	120.384
1466.25	139.779
1466.68	166.159
1467.11	114.641
1467.54	130.876
1467.98	151.875
1468.41	125.467
1468.84	152.535
1469.27	124.21
1469.7	143.458
1470.13	139.183
1470.56	128.626
1470.99	118.472
1471.42	141.653
1471.85	135.578
1472.28	133.396
1472.71	144.886
1473.14	119.647
1473.57	173.613
1474	109.041
1474.43	162.622
1474.86	133.32
1475.29	138.203
1475.72	129.345
1476.15	148.906
1476.58	125.382
1477.01	130.524
1477.44	145.278
1477.87	121.414
1478.3	173.318
1478.72	93.2367
1479.15	177.992
1479.58	108.085
1480.01	153.123
1480.44	130.755
1480.87	132.529
1481.3	124.078
1481.73	121.598
1482.16	155.166
1482.59	125.316
1483.02	171.774
1483.45	93.5745
1483.88	163.573
1484.31	100.936
1484.74	144.616
1485.17	123.995
1485.59	153.08
1486.02	132.492
1486.45	128.089
1486.88	143.928
1487.31	128.978
1487.74	163.471
1488.17	101.433
1488.6	163.56
1489.02	105.999
1489.45	163.799
1489.88	143.433
1490.31	140.895
1490.74	135.607
1491.17	118.443
1491.6	136.597
1492.03	124.761
1492.45	152.607
1492.88	117.24
1493.31	143.675
1493.74	112.283
1494.17	138.003
1494.6	138.617
1495.02	120.743
1495.45	132.658
1495.88	137.34
1496.31	126.769
1496.74	135.568
1497.17	138.53
1497.59	121.827
1498.02	145.733
1498.45	123.307
1498.88	119.789
1499.31	138.466
1499.73	134.089
1500.16	133.039
1500.59	136.578
1501.02	141.483
1501.45	148.559
1501.87	139.213
1502.13	125
1502.56	163
1502.99	129
1503.43	125
1503.86	161
1504.29	163
1504.72	121
1505.16	127
1505.59	129
1506.02	161
1506.46	149
1506.89	103
1507.32	153
1507.75	121
1508.19	127
1508.62	145
1509.05	147
1509.49	131
1509.92	145
1510.35	129
1510.78	145
1511.21	159
1511.65	129
1512.08	177
1512.51	101
1512.94	157
1513.38	145
1513.81	151
1514.24	127
1514.67	165
1515.11	103
1515.54	147
1515.97	171
1516.4	117
1516.83	167
1517.27	105
1517.7	157
1518.13	117
1518.56	165
1518.99	111
1519.42	183
1519.86	121
1520.29	135
1520.72	145
1521.15	85
1521.58	199
1522.01	99
1522.45	163
1522.88	105
1523.31	155
1523.74	129
1524.17	181
1524.6	99
1525.04	169
1525.47	155
1525.9	111
1526.33	183
1526.76	97
1527.19	159
1527.62	101
1528.05	165
1528.49	127
1528.92	179
1529.35	97
1529.78	165
1530.21	141
1530.64	133
1531.07	193
1531.5	105
1531.93	159
1532.37	117
1532.8	181
1533.23	123
1533.66	159
1534.09	103
1534.52	165
1534.95	149
1535.38	125
1535.81	175
1536.24	125
1536.67	157
1537.1	129
1537.53	167
1537.96	139
1538.39	165
1538.82	105
1539.26	191
1539.68	123
1540.12	171
1540.55	163
1540.98	113
1541.41	133
1541.84	131
1542.27	175
1542.7	125
1543.13	165
1543.56	83
1543.99	149
1544.42	167
1544.85	137
1545.28	161
1545.71	103
1546.14	173
1546.57	147
1547	143
1547.43	147
1547.86	123
1548.29	109
1548.72	147
1549.14	155
1549.57	151
1550.01	153
1550.43	141
1550.86	153
1551.29	177
1551.72	131
1552.15	185
1552.58	135
1553.01	149
1553.44	169
1553.87	149
1554.3	153
1554.73	137
1555.16	141
1555.59	161
1556.01	175
1556.44	131
1556.87	185
1557.3	119
1557.73	153
1558.16	159
1558.59	157
1559.02	143
1559.45	151
1559.88	153
1560.3	167
1560.73	157
1561.16	131
1561.59	191
1562.02	91
1562.45	187
1562.88	147
1563.31	179
1563.73	129
1564.16	151
1564.59	147
1565.02	183
1565.45	167
1565.88	121
1566.3	215
1566.73	105
1567.16	191
1567.59	153
1568.02	215
1568.45	151
1568.88	183
1569.3	135
1569.73	157
1570.16	181
1570.59	131
1571.01	217
1571.44	119
1571.87	197
1572.3	151
1572.73	195
1573.15	159
1573.58	151
1574.01	157
1574.44	197
1574.87	187
1575.29	167
1575.72	233
1576.15	133
1576.58	207
1577	157
1577.43	207
1577.86	179
1578.29	213
1578.71	157
1579.14	217
1579.57	191
1580	167
1580.42	241
1580.85	151
1581.28	227
1581.71	163
1582.13	223
1582.56	207
1582.99	241
1583.41	201
1583.84	235
1584.27	217
1584.7	205
1585.12	245
1585.55	157
1585.98	237
1586.4	193
1586.83	241
1587.26	239
1587.68	225
1588.11	191
1588.54	257
1588.96	249
1589.39	243
1589.82	313
1590.24	263
1590.67	323
1591.1	255
1591.52	321
1591.95	339
1592.38	329
1592.8	341
1593.23	409
1593.65	377
1594.08	419
1594.51	453
1594.93	377
1595.36	537
1595.79	507
1596.21	595
1596.64	597
1597.06	609
1597.49	633
1597.92	675
1598.34	727
1598.77	745
1599.19	795
1599.62	771
1600.05	781
1600.47	775
1600.9	711
1601.32	803
1601.75	693
1602.18	711
1602.6	659
1603.03	587
1603.45	569
1603.88	527
1604.3	541
1604.73	475
1605.15	491
1605.58	379
1606	399
1606.43	287
1606.86	309
1607.28	301
1607.71	285
1608.13	287
1608.56	245
1608.98	239
1609.41	261
1609.83	241
1610.26	213
1610.68	235
1611.11	159
1611.53	221
1611.96	211
1612.38	209
1612.81	175
1613.23	157
1613.66	185
1614.08	209
1614.51	201
1614.93	139
1615.36	237
1615.78	119
1616.21	221
1616.63	161
1617.06	195
1617.48	159
1617.9	147
1618.33	169
1618.75	167
1619.18	215
1619.6	127
1620.03	201
1620.45	129
1620.88	209
1621.3	141
1621.72	163
1622.15	161
1622.57	159
1623	141
1623.42	169
1623.85	169
1624.27	123
1624.69	187
1625.12	107
1625.54	191
1625.97	113
1626.39	157
1626.81	169
1627.24	149
1627.66	135
1628.08	175
1628.51	143
1628.93	139
1629.36	173
1629.78	135
1630.2	191
1630.63	117
1631.05	167
1631.47	159
1631.9	149
1632.32	115
1632.74	169
1633.17	133
1633.59	151
1634.01	153
1634.44	135
1634.86	157
1635.28	121
1635.71	153
1636.13	181
1636.55	137
1636.98	135
1637.4	165
1637.82	127
1638.25	167
1638.67	135
1639.09	115
1639.51	167
1639.94	153
1640.36	121
1640.78	167
1641.21	107
1641.63	121
1642.05	143
1642.47	149
1642.9	149
1643.32	103
1643.74	143
1644.17	139
1644.59	147
1645.01	139
1645.43	179
1645.86	97
1646.28	141
1646.7	147
1647.12	133
1647.55	141
1647.97	83
1648.39	141
1648.81	135
1649.23	169
1649.66	93
1650.08	169
1650.5	95
1650.92	161
1651.35	131
1651.77	129
1652.19	147
1652.61	109
1653.03	141
1653.45	143
1653.88	167
1654.3	99
1654.72	197
1655.14	85
1655.56	181
1655.99	125
1656.41	127
1656.83	159
1657.25	103
1657.67	155
1658.09	113
1658.52	141
1658.94	97
1659.36	177
1659.78	93
1660.2	153
1660.62	115
1661.04	151
1661.47	139
1661.89	123
1662.31	123
1662.73	133
1663.15	137
1663.57	101
1663.99	185
1664.41	89
1664.83	189
1665.26	95
1665.68	149
1666.1	151
1666.52	115
1666.94	133
1667.36	145
1667.78	149
1668.2	117
1668.62	185
1669.04	83
1669.46	165
1669.89	113
1670.31	155
1670.73	153
1671.15	111
1671.57	127
1671.99	133
1672.41	125
1672.83	105
1673.25	135
1673.67	105
1674.09	143
1674.51	95
1674.93	123
1675.35	157
1675.77	119
1676.19	129
1676.61	161
1677.03	123
1677.45	141
1677.87	129
1678.29	121
1678.71	149
1679.13	113
1679.55	129
1679.97	151
1680.39	115
1680.81	117
1681.23	129
1681.65	145
1682.07	143
1682.49	107
1682.91	111
1683.33	131
1683.75	107
1684.17	113
1684.59	147
1685.01	119
1685.43	127
1685.85	149
1686.27	113
1686.69	145
1687.11	95
1687.53	143
1687.95	123
1688.37	151
1688.78	117
1689.2	175
1689.62	91
1690.04	127
1690.46	145
1690.88	113
1691.3	169
1691.72	83
1692.14	139
1692.56	119
1692.98	145
1693.39	109
1693.81	153
1694.23	75
1694.65	129
1695.07	151
1695.49	127
1695.91	169
1696.33	59
1696.75	149
1697.16	127
1697.58	149
1698	89
1698.42	149
1698.84	89
1699.26	139
1699.68	131
1700.09	127
1700.51	151
1700.93	75
1701.35	151
1701.77	107
1702.19	151
1702.6	81
1703.02	165
1703.44	93
1703.86	163
1704.28	125
1704.69	143
1705.11	157
1705.53	65
1705.95	155
1706.37	119
1706.78	149
1707.2	77
1707.62	131
1708.04	85
1708.46	135
1708.87	135
1709.29	107
1709.71	139
1710.13	75
1710.54	159
1710.96	121
1711.38	137
1711.8	99
1712.22	135
1712.63	101
1713.05	153
1713.47	121
1713.89	149
1714.3	159
1714.72	115
1715.14	135
1715.56	145
1715.97	123
1716.39	103
1716.81	135
1717.22	105
1717.64	167
1718.06	75
1718.48	135
1718.89	167
1719.31	103
1719.73	149
1720.14	123
1720.56	117
1720.98	139
1721.39	127
1721.81	105
1722.23	145
1722.64	131
1723.06	129
1723.48	155
1723.89	95
1724.31	127
1724.73	127
1725.14	117
1725.56	137
1725.98	101
1726.39	115
1726.81	123
1727.23	129
1727.64	119
1728.06	167
1728.48	115
1728.89	105
1729.31	149
1729.72	109
1730.14	151
1730.56	73
1730.97	141
1731.39	119
1731.8	127
1732.22	107
1732.64	143
1733.05	101
1733.47	101
1733.89	125
1734.3	121
1734.72	173
1735.13	73
1735.55	139
1735.96	119
1736.38	149
1736.8	103
1737.21	161
1737.63	101
1738.04	129
1738.46	133
1738.87	127
1739.29	165
1739.71	65
1740.12	149
1740.54	115
1740.95	159
1741.37	89
1741.78	151
1742.2	103
1742.61	139
1743.03	129
1743.44	99
1743.86	165
1744.27	61
1744.69	153
1745.1	93
1745.52	149
1745.93	85
1746.35	141
1746.77	77
1747.18	149
1747.59	123
1748.01	113
1748.42	167
1748.84	83
1749.25	155
1749.67	111
1750.08	153
1750.5	91
1750.91	133
1751.33	101
1751.74	167
1752.16	121
1752.57	115
1752.99	149
1753.4	75
1753.81	153
1754.23	119
1754.64	143
1755.06	101
1755.47	145
1755.89	97
1756.3	133
1756.72	113
1757.13	101
1757.54	149
1757.96	101
1758.37	159
1758.78	117
1759.2	139
1759.61	121
1760.03	117
1760.44	115
1760.86	151
1761.27	97
1761.68	137
1762.1	153
1762.51	105
1762.92	145
1763.34	147
1763.75	129
1764.17	127
1764.58	113
1764.99	117
1765.41	153
1765.82	109
1766.23	141
1766.65	129
1767.06	99
1767.47	127
1767.89	127
1768.3	123
1768.71	129
1769.13	103
1769.54	121
1769.95	127
1770.37	107
1770.78	113
1771.19	147
1771.61	105
1772.02	133
1772.43	137
1772.85	99
1773.26	137
1773.67	85
1774.09	151
1774.5	125
1774.91	121
1775.32	135
1775.74	143
1776.15	107
1776.56	111
1776.97	145
1777.39	109
1777.8	167
1778.21	65
1778.62	121
1779.04	119
1779.45	125
1779.86	131
1780.28	117
1780.69	95
1781.1	121
1781.51	135
1781.92	91
1782.34	159
1782.75	47
1783.16	141
1783.57	105
1783.99	119
1784.4	137
1784.81	141
1785.22	107
1785.63	119
1786.05	131
1786.46	99
1786.87	157
1787.28	67
1787.69	171
1788.11	119
1788.52	153
1788.93	109
1789.34	135
1789.75	95
1790.17	127
1790.58	133
1790.99	67
1791.4	169
1791.81	29
1792.22	153
1792.63	113
1793.05	143
1793.46	77
1793.87	121
1794.28	117
1794.69	129
1795.1	125
1795.52	93
1795.93	151
1796.34	69
1796.75	153
1797.16	135
1797.57	131
1797.98	109
1798.39	135
1798.81	91
1799.22	135
1799.63	127
1800.04	115
1800.45	171
1800.86	65
1801.27	141
1801.68	115
1802.09	135
1802.5	105
1802.91	113
1803.32	107
1803.73	141
1804.15	109
1804.56	99
1804.97	149
1805.38	91
1805.79	167
1806.2	111
1806.61	137
1807.02	117
1807.43	123
1807.84	105
1808.25	137
1808.66	99
1809.07	105
1809.48	137
1809.89	97
1810.3	131
1810.71	135
1811.12	117
1811.53	161
1811.94	95
1812.35	133
1812.76	139
1813.17	107
1813.58	137
1813.99	131
1814.4	109
1814.81	117
1815.22	119
1815.63	109
1816.04	139
1816.45	97
1816.86	109
1817.27	127
1817.68	91
1818.09	129
1818.5	121
1818.91	109
1819.32	105
1819.73	135
1820.14	101
1820.55	163
1820.96	59
1821.37	149
1821.78	117
1822.19	139
1822.6	107
1823.01	105
1823.42	113
1823.82	111
1824.23	155
1824.64	93
1825.05	181
1825.46	75
1825.87	141
1826.28	91
1826.69	115
1827.1	113
1827.51	113
1827.91	123
1828.32	97
1828.73	147
1829.14	75
1829.55	177
1829.96	49
1830.37	135
1830.78	103
1831.18	123
1831.59	125
1832	115
1832.41	119
1832.82	107
1833.23	147
1833.64	97
1834.05	155
1834.45	69
1834.86	161
1835.27	103
1835.68	131
1836.09	115
1836.49	115
1836.9	99
1837.31	115
1837.72	129
1838.13	83
1838.53	161
1838.94	33
1839.35	145
1839.76	85
1840.17	121
1840.58	119
1840.98	103
1841.39	115
1841.8	115
1842.21	125
1842.61	103
1843.02	147
1843.43	61
1843.84	155
1844.25	117
1844.65	127
1845.06	107
1845.47	105
1845.88	119
1846.28	136.845
1846.69	126.852
1847.1	118.85
1847.51	138.474
1847.91	90.7001
1848.32	147.915
1848.73	124.723
1849.14	124.736
1849.54	111.429
1849.95	131.067
1850.36	112.782
1850.77	142.521
1851.17	101.261
1851.58	112.743
1851.99	127.278
1852.39	80.3935
1852.8	150.962
1853.21	111.711
1853.62	117.059
1854.02	115.877
1854.43	100.25
1854.84	136.39
1855.24	133.888
1855.65	114.356
1856.06	130.075
1856.46	121.466
1856.87	113.227
1857.28	132.397
1857.68	140.531
1858.09	103.118
1858.5	142.169
1858.9	97.6085
1859.31	131.109
1859.72	129.248
1860.12	109.841
1860.53	128.843
1860.94	111.041
1861.34	128.629
1861.75	112.359
1862.15	155.345
1862.56	74.6793
1862.97	128.975
1863.37	109.692
1863.78	123.436
1864.19	118.324
1864.59	103.133
1865	122.453
1865.4	103.617
1865.81	134.937
1866.22	111.385
1866.62	140.999
1867.03	78.3681
1867.43	149.843
1867.84	98.9656
1868.25	139.024
1868.65	131.416
1869.06	96.5654
1869.46	132.691
1869.87	115.911
1870.28	136.045
1870.68	123.027
1871.09	145.415
1871.49	102.296
1871.9	149.849
1872.3	106.329
1872.71	133.548
1873.12	118.22
1873.52	104.571
1873.93	123.84
1874.33	113.499
1874.74	131.651
1875.14	115.235
1875.55	140.312
1875.95	106.927
1876.36	116.882
1876.76	114.151
1877.17	129.343
1877.57	116.756
1877.98	109.271
1878.38	129.526
1878.79	118.59
1879.19	127.743
1879.6	116.065
1880	132.869
1880.41	114.21
1880.81	123.436
1881.22	122.299
1881.63	125.319
1882.03	125.462
1882.43	120.656
1882.84	127.582
1883.24	144.139
1883.65	130.539
1884.05	121.261
1884.46	128.906
1884.86	118.609
1885.27	115.233
1885.67	140.548
1886.08	124.055
1886.48	109.379
1886.89	123.568
1887.29	87.9462
1887.69	104.648
1888.1	119.573
1888.5	106.818
1888.85	139
1889.26	131
1889.67	117
1890.08	117
1890.49	145
1890.9	75
1891.3	161
1891.71	81
1892.12	145
1892.53	127
1892.94	103
1893.35	135
1893.76	101
1894.17	111
1894.58	131
1894.99	147
1895.4	91
1895.81	181
1896.22	63
1896.62	137
1897.03	127
1897.44	99
1897.85	125
1898.26	117
1898.67	115
1899.08	101
1899.49	131
1899.9	95
1900.3	167
1900.71	67
1901.12	157
1901.53	99
1901.94	127
1902.35	131
1902.75	113
1903.16	145
1903.57	89
1903.98	155
1904.39	89
1904.8	159
1905.21	47
1905.61	149
1906.02	111
1906.43	131
1906.84	129
1907.25	93
1907.66	125
1908.06	131
1908.47	141
1908.88	99
1909.29	155
1909.7	71
1910.1	159
1910.51	107
1910.92	119
1911.33	95
1911.73	115
1912.14	99
1912.55	145
1912.96	129
1913.37	125
1913.77	157
1914.18	63
1914.59	163
1915	107
1915.4	121
1915.81	111
1916.22	125
1916.63	123
1917.03	131
1917.44	133
1917.85	117
1918.26	131
1918.66	75
1919.07	145
1919.48	131
1919.89	125
1920.29	107
1920.7	111
1921.11	125
1921.51	139
1921.92	91
1922.33	111
1922.73	121
1923.14	101
1923.55	125
1923.96	123
1924.36	91
1924.77	133
1925.18	107
1925.58	125
1925.99	133
1926.4	85
1926.8	135
1927.21	121
1927.62	119
1928.02	131
1928.43	133
1928.84	121
1929.24	149
1929.65	95
1930.06	111
1930.46	131
1930.87	99
1931.28	141
1931.68	121
1932.09	109
1932.49	115
1932.9	129
1933.31	93
1933.71	163
1934.12	67
1934.53	147
1934.93	139
1935.34	85
1935.74	141
1936.15	97
1936.56	121
1936.96	107
1937.37	147
1937.78	97
1938.18	167
1938.59	65
1938.99	135
1939.4	131
1939.8	97
1940.21	151
1940.62	111
1941.02	133
1941.43	117
1941.83	175
1942.24	101
1942.64	181
1943.05	59
1943.45	147
1943.86	119
1944.27	125
1944.67	139
1945.08	107
1945.48	127
1945.89	101
1946.29	149
1946.7	87
1947.1	167
1947.51	57
1947.91	159
1948.32	115
1948.72	137
1949.13	127
1949.53	99
1949.94	125
1950.34	117
1950.75	143
1951.15	111
1951.56	155
1951.96	59
1952.37	161
1952.77	111
1953.18	141
1953.58	139
1953.99	123
1954.39	131
1954.8	121
1955.2	145
1955.61	101
1956.01	157
1956.42	57
1956.82	171
1957.23	115
1957.63	119
1958.03	141
1958.44	101
1958.84	125
1959.25	115
1959.65	125
1960.06	111
1960.46	135
1960.86	61
1961.27	165
1961.67	97
1962.08	125
1962.48	121
1962.89	113
1963.29	131
1963.69	155
1964.1	121
1964.5	105
1964.91	151
1965.31	81
1965.71	169
1966.12	101
1966.52	123
1966.93	109
1967.33	101
1967.73	123
1968.14	133
1968.54	117
1968.94	125
1969.35	137
1969.75	103
1970.15	135
1970.56	113
1970.96	109
1971.37	101
1971.77	87
1972.17	119
1972.58	135
1972.98	105
1973.38	135
1973.79	123
1974.19	113
1974.59	141
1974.99	139
1975.4	103
1975.8	121
1976.21	97
1976.61	133
1977.01	153
1977.41	95
1977.82	127
1978.22	117
1978.62	113
1979.03	111
1979.43	139
1979.83	99
1980.24	169
1980.64	91
1981.04	149
1981.44	119
1981.85	95
1982.25	141
1982.65	97
1983.05	121
1983.46	111
1983.86	151
1984.26	97
1984.66	173
1985.07	61
1985.47	135
1985.87	113
1986.27	125
1986.68	145
1987.08	117
1987.48	151
1987.88	103
1988.29	161
1988.69	105
1989.09	165
1989.49	71
1989.89	153
1990.3	115
1990.7	119
1991.1	131
1991.5	119
1991.9	123
1992.31	95
1992.71	139
1993.11	97
1993.51	159
1993.91	71
1994.32	143
1994.72	101
1995.12	153
1995.52	129
1995.92	115
1996.32	119
1996.73	111
1997.13	161
1997.53	109
1997.93	183
1998.33	53
1998.73	153
1999.14	115
1999.54	149
1999.94	119
2000.34	103
2000.74	115
2001.14	131
2001.54	125
2001.94	113
2002.35	165
2002.75	77
2003.15	167
2003.55	109
2003.95	109
2004.35	109
2004.75	103
2005.15	115
2005.55	129
2005.96	127
2006.36	121
2006.76	141
2007.16	67
2007.56	155
2007.96	123
2008.36	129
2008.76	117
2009.16	105
2009.56	147
2009.96	139
2010.36	121
2010.76	125
2011.16	143
2011.57	101
2011.97	131
2012.37	133
2012.77	107
2013.17	125
2013.57	95
2013.97	131
2014.37	161
2014.77	109
2015.17	143
2015.57	117
2015.97	107
2016.37	129
2016.77	137
2017.17	117
2017.57	157
2017.97	95
2018.37	131
2018.77	133
2019.17	101
2019.57	141
2019.97	101
2020.37	131
2020.77	107
2021.17	147
2021.57	103
2021.97	169
2022.37	105
2022.77	151
2023.17	121
2023.57	101
2023.97	151
2024.37	111
2024.77	107
2025.17	129
2025.57	149
2025.97	105
2026.37	151
2026.77	83
2027.16	161
2027.56	127
2027.96	109
2028.36	143
2028.76	99
2029.16	121
2029.56	95
2029.96	153
2030.36	99
2030.76	177
2031.16	55
2031.56	159
2031.96	119
2032.35	115
2032.75	151
2033.15	97
2033.55	159
2033.95	101
2034.35	141
2034.75	105
2035.15	183
2035.54	85
2035.94	175
2036.34	113
2036.74	123
2037.14	143
2037.54	101
2037.94	143
2038.34	109
2038.74	145
2039.13	93
2039.53	161
2039.93	51
2040.33	163
2040.73	129
2041.12	131
2041.52	143
2041.92	91
2042.32	113
2042.72	111
2043.12	139
2043.51	101
2043.91	161
2044.31	61
2044.71	167
2045.11	107
2045.51	133
2045.9	133
2046.3	99
2046.7	125
2047.1	121
2047.49	135
2047.89	117
2048.29	159
2048.69	71
2049.09	163
2049.48	117
2049.88	125
2050.28	145
2050.68	97
2051.07	129
2051.47	127
2051.87	133
2052.27	111
2052.67	135
2053.06	89
2053.46	153
2053.86	127
2054.26	131
2054.65	133
2055.05	105
2055.45	117
2055.85	143
2056.24	113
2056.64	133
2057.04	127
2057.43	107
2057.83	165
2058.23	127
2058.62	131
2059.02	133
2059.42	101
2059.82	127
2060.21	131
2060.61	105
2061.01	153
2061.4	115
2061.8	125
2062.2	133
2062.59	149
2062.99	105
2063.39	127
2063.79	85
2064.18	143
2064.58	127
2064.97	83
2065.37	153
2065.77	97
2066.16	165
2066.56	113
2066.96	151
2067.35	89
2067.75	149
2068.15	87
2068.54	137
2068.94	139
2069.34	89
2069.73	169
2070.13	81
2070.52	133
2070.92	129
2071.32	137
2071.71	91
2072.11	155
2072.51	81
2072.9	139
2073.3	123
2073.69	97
2074.09	157
2074.49	91
2074.88	145
2075.28	77
2075.67	143
2076.07	91
2076.47	161
2076.86	55
2077.26	151
2077.65	103
2078.05	119
2078.44	139
2078.84	89
2079.23	143
2079.63	95
2080.03	153
2080.42	101
2080.82	171
2081.21	71
2081.61	169
2082	119
2082.4	127
2082.79	149
2083.19	99
2083.58	131
2083.98	99
2084.37	151
2084.77	117
2085.16	157
2085.56	69
2085.95	157
2086.35	125
2086.74	131
2087.14	135
2087.53	97
2087.93	153
2088.32	125
2088.72	137
2089.11	107
2089.51	147
2089.9	57
2090.3	149
2090.69	111
2091.09	129
2091.48	123
2091.88	93
2092.27	137
2092.67	129
2093.06	127
2093.46	117
2093.85	113
2094.25	95
2094.64	175
2095.03	121
2095.43	117
2095.82	139
2096.22	95
2096.61	147
2097.01	127
2097.4	119
2097.79	149
2098.19	105
2098.58	95
2098.98	135
2099.37	117
2099.76	123
2100.16	137
2100.55	93
2100.95	113
2101.34	143
2101.73	93
2102.13	127
2102.52	105
2102.92	109
2103.31	131
2103.7	133
2104.1	119
2104.49	131
2104.88	97
2105.28	127
2105.67	161
2106.07	103
2106.46	139
2106.85	95
2107.25	127
2107.64	127
2108.03	141
2108.43	107
2108.82	163
2109.21	91
2109.61	139
2110	123
2110.39	79
2110.79	157
2111.18	85
2111.57	131
2111.97	97
2112.36	145
2112.75	109
2113.15	151
2113.54	95
2113.93	145
2114.32	137
2114.72	89
2115.11	169
2115.5	91
2115.9	149
2116.29	101
2116.68	151
2117.08	105
2117.47	155
2117.86	97
2118.25	117
2118.65	127
2119.04	85
2119.43	155
2119.82	55
2120.22	143
2120.61	97
2121	155
2121.39	97
2121.79	151
2122.18	71
2122.57	153
2122.96	133
2123.36	101
2123.75	157
2124.14	81
2124.53	147
2124.93	87
2125.32	161
2125.71	99
2126.1	155
2126.49	87
2126.89	157
2127.28	117
2127.67	113
2128.06	163
2128.45	69
2128.85	145
2129.24	101
2129.63	141
2130.02	111
2130.41	131
2130.81	75
2131.2	157
2131.59	119
2131.98	127
2132.37	167
2132.76	117
2133.16	147
2133.55	103
2133.94	131
2134.33	103
2134.72	139
2135.11	73
2135.5	159
2135.9	95
2136.29	141
2136.68	121
2137.07	97
2137.46	137
2137.85	113
2138.24	125
2138.63	121
2139.03	145
2139.42	75
2139.81	147
2140.2	135
2140.59	111
2140.98	137
2141.37	89
2141.76	147
2142.15	121
2142.55	129
2142.94	129
2143.33	107
2143.72	109
2144.11	133
2144.5	133
2144.89	91
2145.28	135
2145.67	93
2146.06	127
2146.45	127
2146.84	113
2147.23	143
2147.62	117
2148.02	113
2148.4	133
2148.8	129
2149.19	109
2149.58	103
2149.97	97
2150.36	131
2150.75	137
2151.14	95
2151.53	169
2151.92	81
2152.31	117
2152.7	129
2153.09	125
2153.48	107
2153.87	121
2154.26	81
2154.65	135
2155.04	125
2155.43	93
2155.82	145
2156.21	91
2156.6	129
2156.99	119
2157.38	157
2157.77	91
2158.16	141
2158.55	91
2158.94	159
2159.33	141
2159.72	75
2160.11	169
2160.5	99
2160.89	141
2161.28	87
2161.66	143
2162.05	97
2162.44	145
2162.83	91
2163.22	137
2163.61	133
2164	75
2164.39	155
2164.78	95
2165.17	131
2165.56	91
2165.95	163
2166.34	119
2166.73	157
2167.11	67
2167.5	149
2167.89	127
2168.28	85
2168.67	141
2169.06	85
2169.45	143
2169.84	91
2170.23	139
2170.62	91
2171	151
2171.39	65
2171.78	131
2172.17	109
2172.56	117
2172.95	149
2173.34	69
2173.73	153
2174.11	101
2174.5	153
2174.89	103
2175.28	155
2175.67	81
2176.06	147
2176.45	101
2176.83	113
2177.22	147
2177.61	95
2178	161
2178.39	109
2178.78	137
2179.16	95
2179.55	117
2179.94	91
2180.33	155
2180.72	109
2181.1	109
2181.49	135
2181.88	93
2182.27	121
2182.66	117
2183.04	123
2183.43	121
2183.82	107
2184.21	87
2184.6	147
2184.98	107
2185.37	101
2185.76	123
2186.15	99
2186.53	145
2186.92	125
2187.31	125
2187.7	125
2188.08	109
2188.47	97
2188.86	139
2189.25	123
2189.63	111
2190.02	125
2190.41	105
2190.8	145
2191.18	135
2191.57	123
2191.96	141
2192.34	95
2192.73	105
2193.12	147
2193.51	129
2193.89	131
2194.28	101
2194.67	99
2195.06	109
2195.44	141
2195.83	85
2196.22	147
2196.6	105
2196.99	125
2197.38	147
2197.76	135
2198.15	111
2198.54	115
2198.92	103
2199.31	133
2199.7	121
2200.08	71
2200.47	157
2200.86	67
2201.24	139
2201.63	123
2202.02	157
2202.4	109
2202.79	115
2203.18	83
2203.56	125
2203.95	133
2204.34	101
2204.72	155
2205.11	71
2205.49	149
2205.88	105
2206.27	119
2206.65	105
2207.04	123
2207.43	107
2207.81	125
2208.2	141
2208.58	73
2208.97	157
2209.36	85
2209.74	155
2210.13	97
2210.51	149
2210.9	117
2211.29	123
2211.67	93
2212.06	149
2212.44	137
2212.83	83
2213.21	165
2213.6	59
2213.98	137
2214.37	97
2214.76	129
2215.14	99
2215.53	139
2215.91	79.1415
2216.3	140.108
2216.69	109.559
2217.07	86.0613
2217.46	152.437
2217.84	58.1326
2218.23	145.078
2218.61	94.8351
2219	128.152
2219.38	121.546
2219.77	123.708
2220.15	98.978
2220.54	139.547
2220.92	114.778
2221.31	106.869
2221.69	149.196
2222.08	79.5501
2222.46	152.047
2222.85	96.5086
2223.23	132.953
2223.62	122.603
2224	114.326
2224.39	91.9708
2224.77	144.976
2225.16	129.573
2225.54	121.212
2225.93	132.39
2226.31	83.7706
2226.7	120.77
2227.08	110.026
2227.47	130.601
2227.85	112.469
2228.23	101.707
2228.62	91.7601
2229	151.738
2229.39	145.911
2229.77	173.825
2230.16	141.997
2230.54	98.7879
2230.92	139.726
2231.31	133.054
2231.69	124.897
2232.08	138.186
2232.46	91.4459
2232.85	119.917
2233.23	132.694
2233.62	120.745
2234	123.677
2234.38	121.18
2234.77	104.062
2235.15	122.959
2235.54	141.142
2235.92	118.148
2236.3	138.489
2236.69	92.916
2237.07	113.416
2237.46	116.764
2237.84	117.799
2238.22	105.88
2238.61	122.068
2238.99	100.527
2239.37	117.561
2239.76	138.94
2240.14	111.309
2240.53	127.742
2240.91	94.1546
2241.29	125.527
2241.68	136.26
2242.06	122.537
2242.44	115.823
2242.83	124.451
2243.21	99.3588
2243.59	134.495
2243.98	131.423
2244.36	106.727
2244.74	114.882
2245.13	110.002
2245.51	110.363
2245.89	128.956
2246.28	132.968
2246.66	106.663
2247.04	155.523
2247.43	100.926
2247.81	140.14
2248.19	104.013
2248.58	125.293
2248.96	104.24
2249.34	125.782
2249.73	90.4046
2250.11	122.726
2250.49	130.415
2250.88	84.7569
2251.26	160.065
2251.64	79.1071
2252.02	136.609
2252.41	93.8992
2252.79	143.627
2252.8	145
2253.18	99
2253.57	143
2253.96	83
2254.35	133
2254.74	137
2255.12	101
2255.51	155
2255.9	81
2256.29	145
2256.67	107
2257.06	145
2257.45	87
2257.84	171
2258.22	61
2258.61	135
2259	119
2259.39	103
2259.77	147
2260.16	77
2260.55	135
2260.94	73
2261.32	145
2261.71	101
2262.1	141
2262.48	75
2262.87	149
2263.26	121
2263.65	111
2264.03	167
2264.42	69
2264.81	143
2265.19	97
2265.58	143
2265.97	107
2266.35	131
2266.74	69
2267.13	135
2267.51	117
2267.9	121
2268.29	143
2268.67	81
2269.06	135
2269.45	93
2269.83	127
2270.22	121
2270.61	131
2270.99	79
2271.38	133
2271.77	109
2272.15	121
2272.54	131
2272.93	87
2273.31	119
2273.7	105
2274.08	143
2274.47	117
2274.86	111
2275.24	83
2275.63	147
2276.02	101
2276.4	115
2276.79	131
2277.17	85
2277.56	123
2277.95	121
2278.33	109
2278.72	131
2279.1	105
2279.49	91
2279.88	127
2280.26	121
2280.65	111
2281.03	127
2281.42	101
2281.8	139
2282.19	133
2282.58	89
2282.96	131
2283.35	91
2283.73	99
2284.12	143
2284.5	131
2284.89	115
2285.28	119
2285.66	97
2286.05	117
2286.43	147
2286.82	89
2287.2	159
2287.59	79
2287.97	129
2288.36	121
2288.74	133
2289.13	109
2289.51	125
2289.9	107
2290.28	133
2290.67	131
2291.05	83
2291.44	135
2291.82	77
2292.21	131
2292.59	111
2292.98	131
2293.36	85
2293.75	141
2294.13	85
2294.52	123
2294.9	119
2295.29	79
2295.67	159
2296.06	69
2296.44	137
2296.83	93
2297.21	141
2297.6	93
2297.98	147
2298.36	85
2298.75	153
2299.13	137
2299.52	99
2299.9	165
2300.29	73
2300.67	145
2301.06	97
2301.44	149
2301.82	115
2302.21	149
2302.59	87
2302.98	155
2303.36	107
2303.75	89
2304.13	147
2304.51	89
2304.9	145
2305.28	71
2305.67	147
2306.05	119
2306.44	153
2306.82	79
2307.2	161
2307.59	115
2307.97	111
2308.35	145
2308.74	89
2309.12	157
2309.51	101
2309.89	139
2310.27	105
2310.66	133
2311.04	87
2311.42	141
2311.81	127
2312.19	123
2312.57	125
2312.96	95
2313.34	131
2313.73	117
2314.11	131
2314.49	137
2314.88	109
2315.26	65
2315.64	145
2316.03	133
2316.41	123
2316.79	119
2317.18	97
2317.56	121
2317.94	125
2318.32	119
2318.71	141
2319.09	119
2319.47	99
2319.86	129
2320.24	135
2320.62	109
2321.01	139
2321.39	97
2321.77	147
2322.15	123
2322.54	109
2322.92	133
2323.3	79
2323.69	93
2324.07	129
2324.45	141
2324.83	117
2325.22	121
2325.6	95
2325.98	141
2326.36	129
2326.75	103
2327.13	161
2327.51	87
2327.89	121
2328.28	139
2328.66	131
2329.04	107
2329.42	105
2329.81	117
2330.19	131
2330.57	147
2330.95	101
2331.33	189
2331.72	91
2332.1	157
2332.48	131
2332.86	135
2333.24	127
2333.63	111
2334.01	97
2334.39	139
2334.77	147
2335.15	81
2335.54	175
2335.92	73
2336.3	121
2336.68	117
2337.06	145
2337.44	121
2337.83	127
2338.21	91
2338.59	123
2338.97	139
2339.35	77
2339.73	175
2340.12	85
2340.5	169
2340.88	107
2341.26	135
2341.64	91
2342.02	155
2342.41	113
2342.79	139
2343.17	143
2343.55	91
2343.93	181
2344.31	91
2344.69	159
2345.07	103
2345.45	135
2345.84	105
2346.22	147
2346.6	111
2346.98	131
2347.36	127
2347.74	93
2348.12	151
2348.5	69
2348.88	157
2349.26	75
2349.65	133
2350.03	121
2350.41	153
2350.79	87
2351.17	141
2351.55	121
2351.93	101
2352.31	147
2352.69	81
2353.07	161
2353.45	85
2353.83	145
2354.21	115
2354.59	137
2354.98	85
2355.35	139
2355.74	141
2356.12	101
2356.5	151
2356.88	85
2357.26	139
2357.64	97
2358.02	135
2358.4	115
2358.78	121
2359.16	85
2359.54	161
2359.92	119
2360.3	117
2360.68	149
2361.06	95
2361.44	133
2361.82	105
2362.2	129
2362.58	127
2362.96	133
2363.34	95
2363.72	129
2364.1	107
2364.48	125
2364.86	131
2365.24	97
2365.62	135
2366	139
2366.38	131
2366.75	135
2367.14	107
2367.51	77
2367.89	137
2368.27	127
2368.65	105
2369.03	129
2369.41	107
2369.79	125
2370.17	131
2370.55	115
2370.93	145
2371.31	83
2371.69	125
2372.07	137
2372.45	141
2372.83	111
2373.2	125
2373.58	121
2373.96	117
2374.34	151
2374.72	83
2375.1	169
2375.48	85
2375.86	149
2376.24	119
2376.61	139
2376.99	121
2377.37	129
2377.75	101
2378.13	131
2378.51	159
2378.89	89
2379.27	145
2379.65	87
2380.02	147
2380.4	107
2380.78	133
2381.16	109
2381.54	131
2381.92	97
2382.3	149
2382.67	149
2383.05	99
2383.43	167
2383.81	77
2384.19	155
2384.57	103
2384.94	135
2385.32	117
2385.7	137
2386.08	89
2386.46	145
2386.83	125
2387.21	99
2387.59	181
2387.97	69
2388.35	153
2388.73	97
2389.1	135
2389.48	129
2389.86	145
2390.24	99
2390.62	137
2390.99	125
2391.37	99
2391.75	167
2392.13	89
2392.5	151
2392.88	73
2393.26	161
2393.64	125
2394.01	115
2394.39	71
2394.77	133
2395.15	107
2395.52	113
2395.9	161
2396.28	97
2396.66	153
2397.04	93
2397.41	151
2397.79	119
2398.17	127
2398.54	81
2398.92	157
2399.3	131
2399.68	111
2400.05	155
2400.43	87
2400.81	143
2401.18	111
2401.56	137
2401.94	135
2402.32	131
2402.69	105
2403.07	165
2403.45	117
2403.82	111
2404.2	143
2404.58	109
2404.95	125
2405.33	133
2405.71	117
2406.09	149
2406.46	105
2406.84	95
2407.22	155
2407.59	125
2407.97	119
2408.34	133
2408.72	105
2409.1	127
2409.47	147
2409.85	117
2410.23	153
2410.6	105
2410.98	79
2411.36	137
2411.73	115
2412.11	135
2412.49	125
2412.86	121
2413.24	123
2413.61	121
2413.99	103
2414.37	149
2414.74	99
2415.12	125
2415.5	157
2415.87	123
2416.25	133
2416.62	133
2417	121
2417.37	139
2417.75	127
2418.13	95
2418.5	159
2418.88	105
2419.25	143
2419.63	119
2420.01	139
2420.38	119
2420.76	127
2421.13	119
2421.51	147
2421.88	147
2422.26	101
2422.64	177
2423.01	91
2423.39	179
2423.76	129
2424.14	143
2424.51	121
2424.89	125
2425.26	111
2425.64	153
2426.01	133
2426.39	77
2426.76	167
2427.14	83
2427.52	135
2427.89	117
2428.26	145
2428.64	97
2429.02	153
2429.39	125
2429.77	139
2430.14	145
2430.52	81
2430.89	173
2431.26	93
2431.64	169
2432.02	97
2432.39	141
2432.77	119
2433.14	141
2433.51	109
2433.89	145
2434.26	147
2434.64	111
2435.01	173
2435.39	87
2435.76	155
2436.14	111
2436.51	177
2436.89	123
2437.26	145
2437.63	103
2438.01	183
2438.38	117
2438.76	127
2439.13	173
2439.51	101
2439.88	163
2440.26	101
2440.63	147
2441	125
2441.38	147
2441.75	83
2442.13	179
2442.5	149
2442.87	131
2443.25	165
2443.62	107
2444	165
2444.37	115
2444.74	179
2445.12	137
2445.49	145
2445.87	115
2446.24	175
2446.61	149
2446.99	143
2447.36	161
2447.73	109
2448.11	169
2448.48	153
2448.86	141
2449.23	159
2449.6	131
2449.98	117
2450.35	151
2450.72	167
2451.1	157
2451.47	161
2451.84	135
2452.22	177
2452.59	157
2452.97	125
2453.34	185
2453.71	143
2454.08	151
2454.46	171
2454.83	143
2455.2	155
2455.58	167
2455.95	141
2456.32	175
2456.7	185
2457.07	151
2457.44	181
2457.82	95
2458.19	167
2458.56	175
2458.93	177
2459.31	149
2459.68	189
2460.05	131
2460.43	161
2460.8	185
2461.17	131
2461.54	197
2461.92	115
2462.29	203
2462.66	145
2463.03	171
2463.41	145
2463.78	169
2464.15	145
2464.52	193
2464.9	189
2465.27	123
2465.64	213
2466.01	119
2466.39	193
2466.76	143
2467.13	179
2467.5	159
2467.88	193
2468.25	133
2468.62	169
2468.99	171
2469.37	121
2469.74	211
2470.11	109
2470.48	163
2470.85	117
2471.22	183
2471.6	127
2471.97	171
2472.34	123
2472.71	193
2473.08	161
2473.46	113
2473.83	201
2474.2	105
2474.57	175
2474.94	127
2475.32	185
2475.69	137
2476.06	175
2476.43	111
2476.8	175
2477.17	145
2477.55	123
2477.92	175
2478.29	99
2478.66	151
2479.03	123
2479.4	185
2479.77	133
2480.15	159
2480.52	107
2480.89	177
2481.26	151
2481.63	129
2482	171
2482.37	103
2482.74	163
2483.12	127
2483.49	149
2483.86	141
2484.23	157
2484.6	103
2484.97	169
2485.34	143
2485.71	135
2486.08	145
2486.46	113
2486.83	167
2487.2	135
2487.57	149
2487.94	141
2488.31	147
2488.68	111
2489.05	165
2489.42	145
2489.79	145
2490.16	169
2490.53	111
2490.9	151
2491.27	129
2491.64	133
2492.01	167
2492.38	139
2492.76	111
2493.13	149
2493.5	133
2493.87	129
2494.24	153
2494.61	103
2494.98	145
2495.35	137
2495.72	147
2496.09	163
2496.46	91
2496.83	145
2497.2	157
2497.57	127
2497.94	147
2498.31	141
2498.68	113
2499.05	151
2499.42	149
2499.79	101
2500.16	161
2500.53	103
2500.9	129
2501.27	149
2501.64	123
2502.01	117
2502.38	127
2502.75	111
2503.12	147
2503.49	145
2503.86	103
2504.23	179
2504.6	93
2504.97	145
2505.34	139
2505.7	165
2506.07	119
2506.44	133
2506.81	113
2507.18	141
2507.55	135
2507.92	81
2508.29	185
2508.66	95
2509.03	163
2509.4	125
2509.77	155
2510.14	127
2510.5	137
2510.88	139
2511.24	155
2511.61	135
2511.98	83
2512.35	189
2512.72	85
2513.09	175
2513.46	115
2513.83	151
2514.2	129
2514.56	133
2514.93	111
2515.3	147
2515.67	127
2516.04	97
2516.41	205
2516.78	91
2517.15	155
2517.51	75
2517.88	153
2518.25	141
2518.62	137
2518.99	117
2519.36	157
2519.73	139
2520.09	99
2520.46	163
2520.83	65
2521.2	175
2521.57	99
2521.94	137
2522.3	125
2522.67	119
2523.04	101
2523.41	161
2523.78	133
2524.15	105
2524.51	173
2524.88	85
2525.25	147
2525.62	95
2525.98	129
2526.35	131
2526.72	175
2527.09	93
2527.46	145
2527.83	117
2528.19	119
2528.56	137
2528.93	107
2529.3	141
2529.66	113
2530.03	143
2530.4	125
2530.77	123
2531.13	77
2531.5	157
2531.87	129
2532.24	121
2532.61	131
2532.97	95
2533.34	147
2533.71	127
2534.07	133
2534.44	145
2534.81	107
2535.18	103
2535.54	161
2535.91	139
2536.28	125
2536.65	131
2537.01	103
2537.38	135
2537.75	135
2538.11	115
2538.48	163
2538.85	81
2539.22	109
2539.58	131
2539.95	121
2540.32	127
2540.68	117
2541.05	121
2541.42	107
2541.78	147
2542.15	111
2542.52	167
2542.89	97
2543.25	137
2543.62	147
2543.99	129
2544.35	125
2544.72	109
2545.08	115
2545.45	153
2545.82	137
2546.19	87
2546.55	145
2546.92	75
2547.28	129
2547.65	125
2548.02	137
2548.38	113
2548.75	125
2549.12	119
2549.48	117
2549.85	137
2550.21	71
2550.58	167
2550.95	81
2551.31	165
2551.68	115
2552.05	141
2552.41	123
2552.78	145
2553.14	131
2553.51	143
2553.88	145
2554.24	85
2554.61	163
2554.97	81
2555.34	159
2555.71	119
2556.07	157
2556.44	115
2556.8	141
2557.17	109
2557.53	147
2557.9	131
2558.27	91
2558.63	167
2559	81
2559.36	151
2559.73	109
2560.09	143
2560.46	89
2560.82	135
2561.19	99
2561.55	135
2561.92	123
2562.29	95
2562.65	171
2563.02	81
2563.38	181
2563.75	89
2564.11	145
2564.48	103
2564.84	143
2565.21	105
2565.57	142.927
2565.94	128.493
2566.3	104.252
2566.67	173.272
2567.03	70.8495
2567.4	176.86
2567.76	116.235
2568.13	148.316
2568.49	120.894
2568.86	134.44
2569.22	93.2997
2569.59	145.619
2569.95	141.979
2570.32	110.479
2570.68	164.938
2571.05	97.6833
2571.41	153.738
2571.78	99.0311
2572.14	139.211
2572.51	129.239
2572.87	107.853
2573.23	122.46
2573.6	140.606
2573.96	112.976
2574.33	121.474
2574.69	153.183
2575.06	99.8385
2575.42	141.988
2575.79	110.626
2576.15	148.226
2576.51	136.448
2576.88	134.217
2577.24	108.533
2577.61	144.915
2577.97	128.069
2578.34	129.376
2578.7	143.77
2579.06	107.567
2579.43	128.33
2579.79	100.553
2580.16	131.741
2580.52	143.345
2580.88	112.947
2581.25	116.873
2581.61	131.405
2581.98	116.232
2582.34	127.136
2582.7	128.118
2583.07	106.014
2583.43	125.278
2583.8	113.953
2584.16	117.728
2584.52	148.413
2584.89	139.771
2585.25	135.211
2585.61	161.47
2585.98	119.254
2586.34	138.847
2586.7	131.275
2587.07	126.017
2587.43	116.733
2587.8	116.506
2588.16	122.792
2588.52	148.471
2588.88	129.374
2589.25	103.365
2589.61	156.195
2589.97	109.381
2590.34	143.167
2590.7	122.721
2591.06	124.265
2591.43	132.816
2591.79	122.521
2592.15	106.563
2592.52	143.006
2592.88	124.298
2593.24	97.5016
2593.61	165.922
2593.97	101.318
2594.33	159.34
2594.7	118.5
2595.06	131.816
2595.42	127.333
2595.78	146.402
2596.15	117.586
2596.51	131.39
2596.87	148.565
2597.24	110.404
2597.6	161.412
2597.96	100.154
2598.32	167.349
2598.69	122.054
2599.05	146.748
2599.41	126.01
2599.78	148.653
2600.14	125.199
2600.5	147.69
2600.86	154.561
2600.95	155
2601.31	85
2601.68	195
2602.05	93
2602.42	165
2602.78	113
2603.15	155
2603.52	141
2603.89	127
2604.25	125
2604.62	131
2604.99	135
2605.35	115
2605.72	179
2606.09	83
2606.46	147
2606.82	99
2607.19	161
2607.56	123
2607.92	129
2608.29	89
2608.66	159
2609.03	145
2609.39	127
2609.76	147
2610.13	109
2610.49	179
2610.86	113
2611.23	153
2611.59	143
2611.96	145
2612.33	101
2612.69	149
2613.06	135
2613.43	127
2613.79	155
2614.16	125
2614.53	149
2614.89	121
2615.26	129
2615.62	169
2615.99	121
2616.36	117
2616.72	151
2617.09	139
2617.46	147
2617.82	145
2618.19	115
2618.56	149
2618.92	173
2619.29	123
2619.65	167
2620.02	125
2620.39	135
2620.75	189
2621.12	147
2621.48	161
2621.85	127
2622.22	127
2622.58	169
2622.95	169
2623.31	129
2623.68	175
2624.04	133
2624.41	151
2624.78	163
2625.14	171
2625.51	135
2625.87	153
2626.24	149
2626.6	171
2626.97	161
2627.34	135
2627.7	207
2628.07	95
2628.43	209
2628.8	157
2629.16	183
2629.53	169
2629.9	149
2630.26	149
2630.63	147
2630.99	183
2631.36	137
2631.72	229
2632.09	135
2632.45	215
2632.82	137
2633.18	175
2633.55	161
2633.91	151
2634.28	153
2634.64	181
2635.01	195
2635.37	121
2635.74	209
2636.1	151
2636.47	199
2636.83	137
2637.2	185
2637.56	163
2637.93	171
2638.29	155
2638.66	195
2639.02	193
2639.39	139
2639.75	229
2640.12	133
2640.48	205
2640.84	167
2641.21	205
2641.57	197
2641.94	195
2642.3	165
2642.67	215
2643.03	225
2643.4	181
2643.76	251
2644.13	143
2644.49	229
2644.85	169
2645.22	219
2645.58	185
2645.95	189
2646.31	193
2646.68	217
2647.04	207
2647.4	181
2647.77	261
2648.13	145
2648.5	257
2648.86	199
2649.22	239
2649.59	209
2649.95	219
2650.32	197
2650.68	285
2651.04	221
2651.41	237
2651.77	269
2652.14	195
2652.5	259
2652.86	213
2653.23	281
2653.59	255
2653.95	259
2654.32	209
2654.68	285
2655.05	241
2655.41	253
2655.77	319
2656.14	253
2656.5	291
2656.86	255
2657.23	267
2657.59	265
2657.95	299
2658.32	257
2658.68	341
2659.04	313
2659.41	291
2659.77	335
2660.13	259
2660.5	299
2660.86	305
2661.22	301
2661.59	363
2661.95	289
2662.31	307
2662.68	369
2663.04	315
2663.4	341
2663.76	347
2664.13	331
2664.49	369
2664.85	389
2665.22	377
2665.58	403
2665.94	393
2666.3	353
2666.67	399
2667.03	421
2667.39	413
2667.76	427
2668.12	357
2668.48	489
2668.84	465
2669.21	449
2669.57	491
2669.93	427
2670.29	467
2670.66	469
2671.02	487
2671.38	517
2671.74	517
2672.11	523
2672.47	517
2672.83	579
2673.19	527
2673.56	557
2673.92	545
2674.28	621
2674.64	577
2675	595
2675.37	587
2675.73	607
2676.09	613
2676.45	607
2676.81	691
2677.18	605
2677.54	691
2677.9	607
2678.26	677
2678.62	689
2678.99	699
2679.35	671
2679.71	707
2680.07	697
2680.43	731
2680.8	761
2681.16	749
2681.52	839
2681.88	737
2682.24	831
2682.6	793
2682.97	819
2683.33	813
2683.69	881
2684.05	787
2684.41	849
2684.77	845
2685.13	795
2685.5	883
2685.86	881
2686.22	875
2686.58	835
2686.94	895
2687.3	913
2687.66	903
2688.03	805
2688.39	855
2688.75	901
2689.11	883
2689.47	851
2689.83	775
2690.19	881
2690.55	847
2690.91	837
2691.28	845
2691.64	911
2692	855
2692.36	863
2692.72	855
2693.08	857
2693.44	865
2693.8	805
2694.16	859
2694.52	813
2694.88	855
2695.24	783
2695.61	839
2695.97	723
2696.33	799
2696.69	741
2697.05	777
2697.41	775
2697.77	697
2698.13	735
2698.49	705
2698.85	733
2699.21	663
2699.57	711
2699.93	625
2700.29	699
2700.65	625
2701.01	667
2701.37	643
2701.73	677
2702.09	601
2702.45	561
2702.81	627
2703.18	639
2703.53	561
2703.89	571
2704.25	585
2704.62	571
2704.98	515
2705.33	531
2705.69	499
2706.06	505
2706.42	529
2706.78	483
2707.13	495
2707.49	493
2707.85	427
2708.22	503
2708.57	437
2708.93	413
2709.29	403
2709.65	407
2710.01	435
2710.37	411
2710.73	397
2711.09	415
2711.45	359
2711.81	379
2712.17	367
2712.53	403
2712.89	353
2713.25	373
2713.61	327
2713.97	345
2714.33	367
2714.69	315
2715.05	347
2715.41	293
2715.76	333
2716.12	319
2716.48	325
2716.84	319
2717.2	331
2717.56	301
2717.92	309
2718.28	305
2718.64	267
2719	301
2719.35	261
2719.71	267
2720.07	249
2720.43	309
2720.79	223
2721.15	285
2721.51	221
2721.87	233
2722.23	259
2722.59	215
2722.94	277
2723.3	191
2723.66	273
2724.02	205
2724.38	265
2724.74	221
2725.1	257
2725.46	207
2725.81	245
2726.17	247
2726.53	215
2726.89	269
2727.25	193
2727.61	251
2727.96	177
2728.32	241
2728.68	171
2729.04	231
2729.4	165
2729.75	239
2730.11	183
2730.47	197
2730.83	247
2731.19	151
2731.55	221
2731.91	171
2732.26	229
2732.62	157
2732.98	223
2733.34	131
2733.69	211
2734.05	171
2734.41	179
2734.77	201
2735.13	141
2735.48	195
2735.84	151
2736.2	211
2736.56	179
2736.91	229
2737.27	129
2737.63	219
2737.99	177
2738.35	193
2738.7	197
2739.06	147
2739.42	181
2739.78	165
2740.13	193
2740.49	165
2740.85	205
2741.21	103
2741.56	205
2741.92	159
2742.28	171
2742.64	191
2742.99	135
2743.35	173
2743.71	147
2744.06	177
2744.42	155
2744.78	187
2745.14	123
2745.49	171
2745.85	169
2746.21	169
2746.57	189
2746.92	143
2747.28	155
2747.64	165
2747.99	167
2748.35	127
2748.71	181
2749.06	99
2749.42	165
2749.78	173
2750.13	165
2750.49	149
2750.85	131
2751.2	163
2751.56	161
2751.92	131
2752.27	151
2752.63	133
2752.99	141
2753.34	155
2753.7	149
2754.06	147
2754.41	169
2754.77	109
2755.13	163
2755.48	155
2755.84	101
2756.2	175
2756.55	135
2756.91	149
2757.26	143
2757.62	169
2757.98	129
2758.33	171
2758.69	105
2759.04	165
2759.4	179
2759.76	109
2760.11	151
2760.47	101
2760.83	171
2761.18	127
2761.54	173
2761.89	113
2762.25	171
2762.61	107
2762.96	175
2763.32	133
2763.67	123
2764.03	167
2764.38	123
2764.74	151
2765.1	103
2765.45	157
2765.81	131
2766.16	177
2766.52	97
2766.88	153
2767.23	117
2767.59	129
2767.94	163
2768.3	127
2768.65	147
2769.01	109
2769.36	163
2769.72	107
2770.07	189
2770.43	93
2770.78	175
2771.14	127
2771.49	125
2771.85	161
2772.21	87
2772.56	143
2772.92	117
2773.27	171
2773.63	101
2773.98	175
2774.34	97
2774.69	147
2775.05	127
2775.4	133
2775.76	145
2776.11	107
2776.47	147
2776.82	151
2777.18	159
2777.53	121
2777.89	175
2778.24	79
2778.59	167
2778.95	121
2779.3	151
2779.66	137
2780.01	115
2780.37	151
2780.72	129
2781.08	165
2781.43	123
2781.79	169
2782.14	79
2782.49	191
2782.85	121
2783.2	135
2783.56	141
2783.91	99
2784.27	123
2784.62	149
2784.98	141
2785.33	125
2785.68	129
2786.04	91
2786.39	169
2786.75	133
2787.1	127
2787.46	133
2787.81	103
2788.16	143
2788.52	153
2788.87	123
2789.22	145
2789.58	139
2789.93	101
2790.29	153
2790.64	145
2790.99	129
2791.35	141
2791.7	115
2792.06	141
2792.41	149
2792.76	111
2793.12	139
2793.47	131
2793.82	117
2794.18	157
2794.53	127
2794.88	119
2795.24	133
2795.59	93
2795.95	137
2796.3	141
2796.65	111
2797.01	145
2797.36	99
2797.71	125
2798.07	121
2798.42	151
2798.77	105
2799.13	143
2799.48	101
2799.83	149
2800.19	147
2800.54	101
2800.89	155
2801.24	119
2801.6	117
2801.95	111
2802.3	145
2802.66	91
2803.01	145
2803.36	95
2803.72	139
2804.07	149
2804.42	113
2804.77	145
2805.13	101
2805.48	153
2805.83	111
2806.19	153
2806.54	87
2806.89	155
2807.24	87
2807.6	171
2807.95	133
2808.3	119
2808.65	153
2809.01	129
2809.36	137
2809.71	117
2810.06	153
2810.42	111
2810.77	177
2811.12	97
2811.47	179
2811.83	131
2812.18	119
2812.53	167
2812.88	103
2813.24	139
2813.59	101
2813.94	167
2814.29	87
2814.64	165
2815	75
2815.35	177
2815.7	133
2816.05	131
2816.4	161
2816.76	87
2817.11	147
2817.46	119
2817.81	145
2818.16	97
2818.52	165
2818.87	61
2819.22	161
2819.57	135
2819.92	131
2820.28	133
2820.63	105
2820.98	123
2821.33	119
2821.68	137
2822.03	119
2822.39	175
2822.74	57
2823.09	167
2823.44	125
2823.79	165
2824.14	151
2824.49	119
2824.85	133
2825.2	127
2825.55	151
2825.9	113
2826.25	179
2826.6	59
2826.95	139
2827.31	133
2827.66	139
2828.01	135
2828.36	97
2828.71	127
2829.06	137
2829.41	141
2829.76	135
2830.11	139
2830.46	89
2830.82	167
2831.17	123
2831.52	119
2831.87	119
2832.22	99
2832.57	143
2832.92	131
2833.27	101
2833.62	117
2833.97	139
2834.32	107
2834.68	151
2835.03	119
2835.38	123
2835.73	115
2836.08	125
2836.43	123
2836.78	127
2837.13	91
2837.48	127
2837.83	115
2838.18	113
2838.53	125
2838.88	139
2839.23	103
2839.58	117
2839.93	99
2840.28	125
2840.63	139
2840.98	97
2841.33	131
2841.68	129
2842.03	123
2842.38	135
2842.73	153
2843.08	93
2843.43	159
2843.78	99
2844.13	155
2844.48	119
2844.83	99
2845.18	153
2845.53	117
2845.88	115
2846.23	109
2846.58	145
2846.93	91
2847.28	167
2847.63	87
2847.98	137
2848.33	133
2848.68	119
2849.03	151
2849.38	129
2849.73	141
2850.08	119
2850.43	153
2850.78	111
2851.13	163
2851.48	73
2851.83	149
2852.18	129
2852.53	125
2852.88	137
2853.23	117
2853.57	131
2853.92	111
2854.27	161
2854.62	99
2854.97	179
2855.32	57
2855.67	159
2856.02	97
2856.37	129
2856.72	135
2857.07	101
2857.42	123
2857.76	107
2858.11	145
2858.46	113
2858.81	181
2859.16	73
2859.51	167
2859.86	121
2860.21	153
2860.56	127
2860.91	117
2861.25	121
2861.6	111
2861.95	145
2862.3	101
2862.65	157
2863	43
2863.35	175
2863.69	115
2864.04	135
2864.39	121
2864.74	115
2865.09	121
2865.44	119
2865.78	135
2866.13	87
2866.48	161
2866.83	53
2867.18	175
2867.53	99
2867.88	147
2868.22	121
2868.57	115
2868.92	113
2869.27	137
2869.62	135
2869.96	107
2870.31	147
2870.66	79
2871.01	145
2871.36	139
2871.7	115
2872.05	143
2872.4	95
2872.75	119
2873.1	113
2873.44	125
2873.79	109
2874.14	145
2874.49	83
2874.84	147
2875.18	113
2875.53	133
2875.88	121
2876.23	119
2876.57	103
2876.92	129
2877.27	127
2877.62	113
2877.97	135
2878.31	99
2878.66	145
2879.01	115
2879.36	129
2879.7	111
2880.05	105
2880.4	135
2880.74	133
2881.09	121
2881.44	155
2881.79	115
2882.13	109
2882.48	137
2882.83	121
2883.18	109
2883.52	119
2883.87	93
2884.22	129
2884.56	147
2884.91	91
2885.26	133
2885.61	121
2885.95	115
2886.3	121
2886.65	145
2886.99	109
2887.34	133
2887.69	89
2888.03	129
2888.38	135
2888.73	97
2889.07	145
2889.42	123
2889.77	135
2890.11	117
2890.46	145
2890.81	95
2891.15	163
2891.5	101
2891.85	133
2892.19	123
2892.54	107
2892.89	139
2893.23	109
2893.58	139
2893.93	107
2894.27	141
2894.62	85
2894.96	177
2895.31	57
2895.66	159
2896	119
2896.35	114.74
2896.7	124.569
2897.04	93.8755
2897.39	120.773
2897.73	105.908
2898.08	148.836
2898.43	93.7709
2898.77	165.091
2899.12	59.1754
2899.46	142.952
2899.81	126.928
2900.16	115
2900.5	149.555
2900.85	109.641
2901.19	128.405
2901.54	110.478
2901.88	140.219
2902.23	120.108
2902.58	160.055
2902.92	68.4782
2903.27	147.087
2903.61	101.746
2903.96	149.015
2904.31	126.298
2904.65	106.109
2905	115.969
2905.34	118.331
2905.69	135.683
2906.03	98.3082
2906.38	153.495
2906.72	68.0759
2907.07	154.714
2907.42	111.109
2907.76	132.007
2908.11	117.444
2908.45	120.186
2908.8	130.007
2909.14	122.221
2909.49	150.39
2909.83	93.0767
2910.18	156.748
2910.52	88.1293
2910.87	147.035
2911.21	127.843
2911.56	126.576
2911.9	110.798
2912.25	112.452
2912.59	108.442
2912.94	120.248
2913.28	141.181
2913.63	108.313
2913.97	130.4
2914.32	108.869
2914.66	137.565
2915.01	141.358
2915.35	129.523
2915.7	112.91
2916.04	119.86
2916.39	113.556
2916.73	126.799
2917.08	122.078
2917.42	111.391
2917.77	119.648
2918.11	116.931
2918.46	124.991
2918.8	135.767
2919.15	122.401
2919.49	122.593
2919.83	134.356
2920.18	127.364
2920.52	131.005
2920.87	127.275
2921.21	114.161
2921.56	116.591
2921.9	118.919
2922.24	123.06
2922.59	135.307
2922.93	122.622
2923.28	114.054
2923.62	125.532
2923.97	115.553
2924.31	111.155
2924.65	122.133
2925	124.478
2925.34	109.34
2925.69	116.273
2926.03	129.113
2926.38	130.361
2926.72	129.729
2927.06	93.6822
2927.41	131.599
2927.75	121.67
2928.09	123.795
2928.44	127.122
2928.78	129.342
2929.13	113.043
2929.47	122.059
2929.81	127.882
2930.16	110.654
2930.5	157.375
2930.79	87
2931.14	145
2931.49	115
2931.84	131
2932.19	123
2932.54	145
2932.88	113
2933.23	135
2933.58	141
2933.93	97
2934.28	171
2934.63	59
2934.97	161
2935.32	101
2935.67	151
2936.02	105
2936.37	145
2936.71	103
2937.06	109
2937.41	129
2937.76	107
2938.11	173
2938.46	47
2938.8	139
2939.15	117
2939.5	143
2939.85	113
2940.19	129
2940.54	99
2940.89	121
2941.24	127
2941.59	107
2941.93	165
2942.28	71
2942.63	147
2942.98	145
2943.32	139
2943.67	115
2944.02	123
2944.37	97
2944.72	151
2945.06	131
2945.41	135
2945.76	167
2946.11	49
2946.45	147
2946.8	113
2947.15	127
2947.49	99
2947.84	131
2948.19	87
2948.54	139
2948.88	137
2949.23	95
2949.58	151
2949.93	65
2950.27	161
2950.62	97
2950.97	143
2951.31	99
2951.66	131
2952.01	105
2952.35	137
2952.7	115
2953.05	111
2953.4	143
2953.74	79
2954.09	133
2954.44	121
2954.78	129
2955.13	105
2955.48	121
2955.82	117
2956.17	151
2956.52	107
2956.86	133
2957.21	135
2957.56	99
2957.9	121
2958.25	137
2958.6	107
2958.94	145
2959.29	109
2959.64	133
2959.98	137
2960.33	83
2960.68	107
2961.02	133
2961.37	103
2961.72	115
2962.06	135
2962.41	109
2962.76	143
2963.1	83
2963.45	113
2963.79	125
2964.14	99
2964.49	109
2964.83	129
2965.18	103
2965.52	105
2965.87	155
2966.22	113
2966.56	157
2966.91	75
2967.25	151
2967.6	127
2967.95	111
2968.29	109
2968.64	139
2968.98	109
2969.33	109
2969.68	139
2970.02	105
2970.37	165
2970.71	71
2971.06	143
2971.4	125
2971.75	115
2972.1	111
2972.44	127
2972.79	97
2973.13	115
2973.48	149
2973.82	95
2974.17	169
2974.51	59
2974.86	145
2975.21	107
2975.55	149
2975.9	103
2976.24	143
2976.59	81
2976.93	133
2977.28	147
2977.62	95
2977.97	161
2978.31	53
2978.66	159
2979	99
2979.35	141
2979.69	87
2980.04	143
2980.38	105
2980.73	139
2981.07	147
2981.42	91
2981.76	159
2982.11	55
2982.45	151
2982.8	101
2983.14	145
2983.49	95
2983.83	127
2984.18	99
2984.52	145
2984.87	125
2985.21	117
2985.56	153
2985.9	83
2986.25	145
2986.59	105
2986.94	135
2987.28	101
2987.62	133
2987.97	109
2988.31	147
2988.66	141
2989	113
2989.35	151
2989.69	55
2990.03	167
2990.38	117
2990.72	143
2991.07	83
2991.41	143
2991.76	117
2992.1	149
2992.44	119
2992.79	107
2993.13	141
2993.48	91
2993.82	145
2994.17	127
2994.51	145
2994.85	103
2995.2	129
2995.54	109
2995.89	139
2996.23	127
2996.57	117
2996.92	143
2997.26	83
2997.6	135
2997.95	143
2998.29	113
2998.64	111
2998.98	99
2999.32	115
2999.67	141
