#Acq. time (s)=	30
#Accumulations=	1
#Range (cm-¹)=	1050...3000 (30 s) 
#Windows=	6
#Auto scanning=	Off
#Autofocus=	Off
#AutoExposure=	Off
#Spike filter=	Off
#Delay time (s)=	0
#Binning=	1
#Readout mode=	Signal
#DeNoise=	Off
#ICS correction=	Off
#Dark correction=	Off
#Inst. Process=	Off
#Detector Gain=	High Sensitivity
#Detector ADC=	45 kHz       
#Detector temperature (°C)=	-60.1
#Instrument=	LabRAM
#Detector=	Syncerity
#Objective=	x50LWD
#Grating=	1800
#Filter=	25%
#Laser (nm)=	532
#Hole=	100
#E-Cal_Neon=	0
#StageXY=	Marzhauser
#StageZ=	Marzhauser
#X (µm)=	0
#Y (µm)=	0
#Z (µm)=	-1678.85
#Spectral res.(cm-¹)=	1.9
#Full time(mm:ss)=	3:08
#Project=	
#Sample=	
#Site=	
#Title=	Spot 1 350K
#Remark=	
#Date=	19.02.2026 10:39
#Acquired=	19.02.2026 10:39:25
#AxisType[0]=Intens
#AxisUnit[0]=Cnt
#AxisType[1]=Spectr
#AxisUnit[1]=1/cm
1050.13	149
1050.59	131
1051.05	141
1051.51	157
1051.97	129
1052.44	125
1052.9	141
1053.36	127
1053.82	169
1054.28	81
1054.74	167
1055.2	139
1055.67	121
1056.13	157
1056.59	125
1057.05	147
1057.51	115
1057.97	163
1058.43	99
1058.89	191
1059.36	79
1059.82	177
1060.28	117
1060.74	121
1061.2	163
1061.66	107
1062.12	159
1062.58	131
1063.04	149
1063.5	113
1063.96	143
1064.43	95
1064.89	151
1065.35	149
1065.81	121
1066.27	153
1066.73	101
1067.19	157
1067.65	145
1068.11	133
1068.57	159
1069.03	125
1069.49	113
1069.95	139
1070.41	133
1070.87	155
1071.33	141
1071.79	141
1072.25	145
1072.71	145
1073.17	115
1073.63	179
1074.09	113
1074.55	119
1075.01	143
1075.47	115
1075.93	189
1076.39	83
1076.85	155
1077.31	141
1077.77	151
1078.23	117
1078.69	155
1079.15	105
1079.61	135
1080.07	155
1080.53	105
1080.99	175
1081.45	71
1081.91	159
1082.37	119
1082.83	171
1083.29	115
1083.75	127
1084.21	115
1084.66	125
1085.12	145
1085.58	101
1086.04	157
1086.5	89
1086.96	179
1087.42	121
1087.88	151
1088.34	145
1088.8	107
1089.25	135
1089.71	141
1090.17	119
1090.63	141
1091.09	143
1091.55	105
1092.01	157
1092.47	143
1092.92	133
1093.38	137
1093.84	109
1094.3	131
1094.76	163
1095.22	121
1095.68	185
1096.13	93
1096.59	141
1097.05	119
1097.51	127
1097.97	125
1098.43	91
1098.88	139
1099.34	121
1099.8	163
1100.26	81
1100.72	157
1101.17	89
1101.63	147
1102.09	159
1102.55	123
1103.01	155
1103.46	89
1103.92	163
1104.38	123
1104.84	153
1105.29	111
1105.75	155
1106.21	99
1106.67	157
1107.12	117
1107.58	139
1108.04	159
1108.5	87
1108.95	137
1109.41	137
1109.87	159
1110.33	115
1110.78	133
1111.24	113
1111.7	167
1112.16	101
1112.61	129
1113.07	145
1113.53	103
1113.98	141
1114.44	133
1114.9	129
1115.35	127
1115.81	129
1116.27	127
1116.72	149
1117.18	129
1117.64	165
1118.1	117
1118.55	145
1119.01	129
1119.47	155
1119.92	101
1120.38	165
1120.84	85
1121.29	145
1121.75	145
1122.2	95
1122.66	171
1123.12	113
1123.57	151
1124.03	109
1124.49	149
1124.94	105
1125.4	137
1125.86	119
1126.31	151
1126.77	161
1127.22	109
1127.68	179
1128.14	87
1128.59	165
1129.05	125
1129.5	143
1129.96	147
1130.41	117
1130.87	103
1131.33	137
1131.78	137
1132.24	127
1132.69	149
1133.15	117
1133.61	147
1134.06	127
1134.52	117
1134.97	141
1135.43	113
1135.88	105
1136.34	147
1136.79	121
1137.25	149
1137.7	101
1138.16	131
1138.61	129
1139.07	121
1139.52	119
1139.98	147
1140.43	105
1140.89	119
1141.34	137
1141.8	117
1142.25	175
1142.71	81
1143.16	147
1143.62	107
1144.07	153
1144.53	125
1144.98	129
1145.44	131
1145.89	125
1146.35	147
1146.8	103
1147.26	181
1147.71	77
1148.16	161
1148.62	127
1149.07	131
1149.53	159
1149.98	101
1150.44	147
1150.89	121
1151.35	161
1151.8	101
1152.25	149
1152.71	101
1153.16	155
1153.62	123
1154.07	137
1154.52	149
1154.98	111
1155.43	119
1155.89	141
1156.34	129
1156.79	151
1157.25	107
1157.7	105
1158.16	121
1158.61	113
1159.06	133
1159.52	103
1159.97	131
1160.42	157
1160.88	147
1161.33	97
1161.78	167
1162.24	107
1162.69	125
1163.14	133
1163.6	141
1164.05	157
1164.5	83
1164.96	155
1165.41	139
1165.86	133
1166.32	113
1166.77	183
1167.22	89
1167.68	151
1168.13	153
1168.58	137
1169.04	165
1169.49	77
1169.94	161
1170.39	97
1170.85	167
1171.3	107
1171.75	143
1172.2	107
1172.66	149
1173.11	141
1173.56	109
1174.01	165
1174.47	67
1174.92	157
1175.37	125
1175.82	137
1176.28	135
1176.73	127
1177.18	133
1177.63	135
1178.09	141
1178.54	149
1178.99	133
1179.44	89
1179.89	137
1180.35	117
1180.8	127
1181.25	123
1181.7	109
1182.15	141
1182.61	143
1183.06	97
1183.51	159
1183.96	83
1184.41	127
1184.87	107
1185.32	137
1185.77	119
1186.22	101
1186.67	131
1187.12	129
1187.58	135
1188.03	85
1188.48	171
1188.93	101
1189.38	141
1189.83	121
1190.28	129
1190.73	151
1191.19	103
1191.64	121
1192.09	129
1192.54	159
1192.99	95
1193.44	157
1193.89	105
1194.34	143
1194.8	105
1195.25	123
1195.7	135
1196.15	109
1196.6	129
1197.05	123
1197.5	137
1197.95	109
1198.4	141
1198.85	97
1199.3	157
1199.75	97
1200.2	125
1200.66	143
1201.11	131
1201.56	123
1202.01	155
1202.46	121
1202.91	133
1203.36	97
1203.81	139
1204.26	135
1204.71	103
1205.16	129
1205.61	107
1206.06	137
1206.51	115
1206.96	149
1207.41	89
1207.86	173
1208.31	89
1208.76	155
1209.21	125
1209.66	103
1210.11	161
1210.56	79
1211.01	153
1211.46	101
1211.91	141
1212.36	101
1212.81	157
1213.26	89
1213.71	147
1214.16	125
1214.61	107
1215.05	159
1215.51	95
1215.95	151
1216.4	129
1216.85	149
1217.3	129
1217.75	133
1218.2	111
1218.65	155
1219.1	133
1219.55	125
1220	125
1220.45	119
1220.9	133
1221.34	127
1221.79	111
1222.24	149
1222.69	99
1223.14	107
1223.59	137
1224.04	133
1224.49	155
1224.94	89
1225.38	131
1225.83	123
1226.28	131
1226.73	109
1227.18	163
1227.63	97
1228.07	123
1228.52	141
1228.97	139
1229.42	161
1229.87	69
1230.32	161
1230.76	111
1231.21	149
1231.66	109
1232.11	175
1232.56	101
1233.01	159
1233.45	141
1233.9	111
1234.35	177
1234.8	69
1235.25	157
1235.69	125
1236.14	155
1236.59	123
1237.04	109
1237.49	105
1237.93	129
1238.38	149
1238.83	131
1239.28	133
1239.72	99
1240.17	133
1240.62	137
1241.07	115
1241.51	131
1241.96	85
1242.41	127
1242.86	137
1243.3	105
1243.75	167
1244.2	107
1244.65	141
1245.09	113
1245.54	151
1245.99	123
1246.44	123
1246.88	121
1247.33	139
1247.78	157
1248.22	79
1248.67	165
1249.12	93
1249.56	161
1250.01	121
1250.46	137
1250.9	139
1251.35	123
1251.8	121
1252.24	133
1252.69	137
1253.14	79
1253.58	159
1254.03	95
1254.48	167
1254.92	123
1255.37	123
1255.82	125
1256.26	89
1256.71	155
1257.15	123
1257.6	139
1258.05	103
1258.49	129
1258.94	83
1259.39	145
1259.83	119
1260.28	121
1260.72	149
1261.17	115
1261.62	145
1262.06	149
1262.51	121
1262.95	137
1263.4	121
1263.85	135
1264.29	157
1264.74	127
1265.18	129
1265.63	153
1266.07	145
1266.52	123
1266.97	147
1267.41	111
1267.86	179
1268.3	79
1268.75	137
1269.19	151
1269.64	101
1270.08	161
1270.53	89
1270.97	147
1271.42	91
1271.86	161
1272.31	111
1272.76	151
1273.2	103
1273.64	153
1274.09	127
1274.53	99
1274.98	179
1275.42	89
1275.87	191
1276.31	117
1276.76	147
1277.2	149
1277.65	133
1278.09	115
1278.54	147
1278.98	125
1279.43	137
1279.87	145
1280.32	95
1280.76	161
1281.21	111
1281.65	139
1282.09	165
1282.54	125
1282.98	101
1283.43	153
1283.87	103
1284.32	129
1284.76	125
1285.21	125
1285.65	149
1286.09	117
1286.54	121
1286.98	151
1287.42	127
1287.87	127
1288.31	143
1288.76	109
1289.2	165
1289.64	89
1290.09	151
1290.53	125
1290.98	145
1291.42	121
1291.86	177
1292.31	153
1292.75	137
1293.19	161
1293.64	91
1294.08	171
1294.53	61
1294.97	159
1295.41	127
1295.85	143
1296.3	161
1296.74	105
1297.19	119
1297.63	113
1298.07	163
1298.51	133
1298.96	145
1299.4	81
1299.84	139
1300.29	135
1300.73	125
1301.17	141
1301.62	123
1302.06	139
1302.5	137
1302.94	119
1303.39	161
1303.83	109
1304.27	101
1304.72	153
1305.16	137
1305.6	137
1306.04	121
1306.49	121
1306.93	139
1307.37	167
1307.81	137
1308.26	167
1308.7	103
1309.14	143
1309.58	145
1310.03	123
1310.47	157
1310.91	103
1311.35	137
1311.8	145
1312.24	161
1312.68	93
1313.12	167
1313.56	89
1314	189
1314.45	135
1314.89	151
1315.33	149
1315.77	107
1316.22	163
1316.66	137
1317.1	167
1317.54	111
1317.98	183
1318.43	113
1318.87	169
1319.31	149
1319.75	129
1320.19	161
1320.63	105
1321.07	161
1321.51	153
1321.96	143
1322.4	135
1322.84	121
1323.28	147
1323.72	165
1324.16	131
1324.6	151
1325.05	169
1325.49	163
1325.93	135
1326.37	159
1326.81	129
1327.25	167
1327.69	135
1328.13	173
1328.57	169
1329.02	129
1329.45	199
1329.9	145
1330.34	175
1330.78	139
1331.22	197
1331.66	139
1332.1	201
1332.54	145
1332.98	175
1333.42	201
1333.86	143
1334.3	223
1334.74	155
1335.18	207
1335.62	155
1336.07	207
1336.5	159
1336.95	183
1337.39	185
1337.83	231
1338.27	213
1338.71	171
1339.15	229
1339.59	171
1340.03	217
1340.47	159
1340.91	201
1341.35	209
1341.79	189
1342.23	205
1342.67	207
1343.11	195
1343.55	169
1343.99	229
1344.43	199
1344.86	217
1345.31	175
1345.74	173
1346.18	207
1346.62	157
1347.06	159
1347.5	195
1347.94	167
1348.38	227
1348.82	155
1349.26	197
1349.7	159
1350.14	167
1350.58	173
1351.02	185
1351.46	149
1351.9	155
1352.33	185
1352.77	125
1353.21	203
1353.65	97
1354.09	205
1354.53	167
1354.97	159
1355.41	181
1355.85	135
1356.29	159
1356.72	103
1357.16	179
1357.6	123
1358.04	185
1358.48	109
1358.92	215
1359.36	161
1359.79	143
1360.23	183
1360.67	117
1361.11	157
1361.55	129
1361.99	137
1362.43	139
1362.87	143
1363.3	113
1363.74	179
1364.18	129
1364.62	145
1365.06	163
1365.49	101
1365.93	137
1366.37	157
1366.81	163
1367.25	153
1367.68	123
1368.12	121
1368.56	157
1369	127
1369.44	137
1369.87	103
1370.31	135
1370.75	155
1371.19	139
1371.62	111
1372.06	167
1372.5	105
1372.94	137
1373.37	145
1373.81	123
1374.25	159
1374.69	85
1375.12	151
1375.56	125
1376	161
1376.44	113
1376.87	153
1377.31	107
1377.75	145
1378.19	145
1378.62	105
1379.06	191
1379.5	69
1379.93	171
1380.37	107
1380.81	145
1381.25	135
1381.68	139
1382.12	139
1382.56	139
1382.99	137
1383.43	101
1383.87	175
1384.3	97
1384.74	163
1385.18	151
1385.61	117
1386.05	133
1386.49	131
1386.92	147
1387.36	151
1387.8	137
1388.23	165
1388.67	119
1389.1	123
1389.54	135
1389.98	155
1390.41	129
1390.85	143
1391.29	91
1391.72	157
1392.16	157
1392.59	95
1393.03	167
1393.47	85
1393.9	145
1394.34	141
1394.77	153
1395.21	121
1395.65	143
1396.08	121
1396.52	125
1396.95	147
1397.39	101
1397.82	163
1398.26	85
1398.7	149
1399.13	113
1399.57	143
1400	137
1400.44	107
1400.87	129
1401.31	133
1401.74	159
1402.18	115
1402.62	167
1403.05	103
1403.49	175
1403.92	129
1404.36	153
1404.79	155
1405.23	111
1405.66	147
1406.1	145
1406.53	127
1406.97	117
1407.4	117
1407.84	129
1408.27	151
1408.71	115
1409.14	125
1409.58	155
1410.01	113
1410.45	135
1410.88	149
1411.31	105
1411.75	151
1412.18	81
1412.62	135
1413.05	131
1413.49	117
1413.92	159
1414.36	133
1414.79	117
1415.23	93
1415.66	137
1416.1	113
1416.53	173
1416.96	89
1417.4	153
1417.83	131
1418.27	113
1418.7	159
1419.13	99
1419.57	137
1420	99
1420.44	163
1420.87	121
1421.3	155
1421.74	85
1422.17	155
1422.61	125
1423.04	127
1423.47	149
1423.91	91
1424.34	161
1424.77	109
1425.21	143
1425.64	143
1426.07	129
1426.51	109
1426.94	149
1427.38	127
1427.81	123
1428.24	145
1428.68	111
1429.11	137
1429.54	113
1429.98	133
1430.41	141
1430.84	81
1431.28	119
1431.71	131
1432.14	113
1432.57	159
1433.01	101
1433.44	153
1433.87	119
1434.31	165
1434.74	113
1435.17	147
1435.61	89
1436.04	109
1436.47	135
1436.9	101
1437.34	165
1437.77	81
1438.2	165
1438.63	125
1439.07	149
1439.5	127
1439.93	125
1440.36	121
1440.8	129
1441.23	137
1441.66	101
1442.09	155
1442.53	71
1442.96	155
1443.39	115
1443.82	135
1444.26	111
1444.69	139
1445.12	133
1445.55	141
1445.98	117
1446.42	123
1446.85	133
1447.28	85
1447.71	155
1448.14	133
1448.57	131
1449.01	135
1449.44	109
1449.87	129
1450.3	139
1450.73	119
1451.17	149
1451.6	97
1452.03	111
1452.46	127
1452.89	137
1453.32	133
1453.76	109
1454.19	117
1454.62	135
1455.05	151
1455.48	123
1455.91	169
1456.34	81
1456.77	153
1457.21	141
1457.64	139
1458.07	137
1458.5	83.3137
1458.93	142.819
1459.36	119.079
1459.79	146.713
1460.22	82.391
1460.65	171.496
1461.08	90.4848
1461.52	168.929
1461.95	132.201
1462.38	124.255
1462.81	173.748
1463.24	81.9958
1463.67	152.553
1464.1	109.416
1464.53	152.796
1464.96	100.155
1465.39	116.611
1465.82	112.341
1466.25	143.647
1466.68	117.744
1467.11	115.206
1467.54	131.862
1467.98	107.306
1468.41	133.799
1468.84	136.824
1469.27	120.987
1469.7	125.272
1470.13	113.055
1470.56	121.353
1470.99	133.509
1471.42	120.186
1471.85	143.325
1472.28	97.4664
1472.71	121.83
1473.14	137.96
1473.57	147.24
1474	119.02
1474.43	122.394
1474.86	114.952
1475.29	133.415
1475.72	137.836
1476.15	89.5527
1476.58	158.966
1477.01	94.8492
1477.44	137.846
1477.87	120.396
1478.3	142.145
1478.72	122.16
1479.15	107
1479.58	129.825
1480.01	127.1
1480.44	128.556
1480.87	94.3161
1481.3	145.657
1481.73	87.9043
1482.16	157.278
1482.59	114.269
1483.02	136.461
1483.45	139.353
1483.88	104.598
1484.31	128.422
1484.74	139.85
1485.17	122.986
1485.59	120.199
1486.02	137.309
1486.45	104.978
1486.88	143.427
1487.31	112.685
1487.74	117.702
1488.17	139.5
1488.6	114.005
1489.02	133.195
1489.45	137.82
1489.88	122.382
1490.31	122.992
1490.74	108.115
1491.17	119.823
1491.6	134.273
1492.03	116.461
1492.45	128.363
1492.88	135.138
1493.31	117.514
1493.74	114.91
1494.17	141.297
1494.6	118.967
1495.02	129.926
1495.45	108.146
1495.88	130.814
1496.31	138.105
1496.74	117.009
1497.17	132.467
1497.59	127.739
1498.02	122.268
1498.45	118.917
1498.88	128.516
1499.31	123.945
1499.73	122.059
1500.16	119.582
1500.59	123.712
1501.02	151.787
1501.45	131.34
1501.87	130.937
1502.13	179
1502.56	77
1502.99	133
1503.43	95
1503.86	135
1504.29	145
1504.72	119
1505.16	115
1505.59	135
1506.02	133
1506.46	99
1506.89	165
1507.32	77
1507.75	149
1508.19	101
1508.62	119
1509.05	135
1509.49	87
1509.92	113
1510.35	137
1510.78	123
1511.21	115
1511.65	123
1512.08	101
1512.51	143
1512.94	101
1513.38	111
1513.81	137
1514.24	121
1514.67	127
1515.11	155
1515.54	101
1515.97	149
1516.4	117
1516.83	145
1517.27	125
1517.7	117
1518.13	119
1518.56	143
1518.99	129
1519.42	117
1519.86	153
1520.29	107
1520.72	171
1521.15	69
1521.58	155
1522.01	111
1522.45	131
1522.88	117
1523.31	119
1523.74	129
1524.17	107
1524.6	153
1525.04	93
1525.47	175
1525.9	49
1526.33	163
1526.76	105
1527.19	135
1527.62	155
1528.05	107
1528.49	135
1528.92	113
1529.35	143
1529.78	129
1530.21	145
1530.64	87
1531.07	151
1531.5	131
1531.93	129
1532.37	141
1532.8	105
1533.23	153
1533.66	147
1534.09	119
1534.52	151
1534.95	117
1535.38	99
1535.81	145
1536.24	153
1536.67	133
1537.1	123
1537.53	117
1537.96	123
1538.39	151
1538.82	83
1539.26	165
1539.68	69
1540.12	129
1540.55	139
1540.98	147
1541.41	161
1541.84	103
1542.27	133
1542.7	121
1543.13	149
1543.56	101
1543.99	179
1544.42	77
1544.85	153
1545.28	139
1545.71	127
1546.14	155
1546.57	79
1547	135
1547.43	117
1547.86	153
1548.29	93
1548.72	175
1549.14	111
1549.57	173
1550.01	135
1550.43	135
1550.86	163
1551.29	105
1551.72	157
1552.15	121
1552.58	145
1553.01	131
1553.44	155
1553.87	119
1554.3	157
1554.73	135
1555.16	139
1555.59	157
1556.01	113
1556.44	155
1556.87	155
1557.3	149
1557.73	157
1558.16	121
1558.59	145
1559.02	161
1559.45	127
1559.88	181
1560.3	131
1560.73	161
1561.16	131
1561.59	183
1562.02	149
1562.45	167
1562.88	111
1563.31	181
1563.73	177
1564.16	135
1564.59	189
1565.02	151
1565.45	189
1565.88	173
1566.3	197
1566.73	159
1567.16	209
1567.59	169
1568.02	203
1568.45	187
1568.88	173
1569.3	235
1569.73	149
1570.16	215
1570.59	159
1571.01	239
1571.44	177
1571.87	249
1572.3	201
1572.73	251
1573.15	237
1573.58	201
1574.01	275
1574.44	181
1574.87	247
1575.29	211
1575.72	269
1576.15	265
1576.58	233
1577	257
1577.43	287
1577.86	287
1578.29	293
1578.71	321
1579.14	265
1579.57	343
1580	331
1580.42	337
1580.85	335
1581.28	321
1581.71	351
1582.13	387
1582.56	407
1582.99	415
1583.41	423
1583.84	439
1584.27	425
1584.7	499
1585.12	499
1585.55	537
1585.98	571
1586.4	615
1586.83	639
1587.26	639
1587.68	743
1588.11	681
1588.54	819
1588.96	755
1589.39	843
1589.82	837
1590.24	871
1590.67	859
1591.1	839
1591.52	883
1591.95	805
1592.38	887
1592.8	747
1593.23	813
1593.65	769
1594.08	691
1594.51	643
1594.93	607
1595.36	577
1595.79	521
1596.21	535
1596.64	477
1597.06	457
1597.49	411
1597.92	437
1598.34	367
1598.77	375
1599.19	315
1599.62	299
1600.05	289
1600.47	271
1600.9	291
1601.32	257
1601.75	267
1602.18	215
1602.6	239
1603.03	237
1603.45	225
1603.88	207
1604.3	215
1604.73	181
1605.15	205
1605.58	165
1606	223
1606.43	185
1606.86	179
1607.28	175
1607.71	183
1608.13	153
1608.56	143
1608.98	141
1609.41	165
1609.83	173
1610.26	123
1610.68	175
1611.11	107
1611.53	157
1611.96	155
1612.38	159
1612.81	181
1613.23	117
1613.66	165
1614.08	157
1614.51	179
1614.93	109
1615.36	203
1615.78	111
1616.21	199
1616.63	169
1617.06	165
1617.48	175
1617.9	117
1618.33	179
1618.75	149
1619.18	209
1619.6	111
1620.03	163
1620.45	103
1620.88	175
1621.3	157
1621.72	153
1622.15	177
1622.57	111
1623	189
1623.42	151
1623.85	147
1624.27	129
1624.69	117
1625.12	125
1625.54	171
1625.97	131
1626.39	139
1626.81	151
1627.24	125
1627.66	155
1628.08	153
1628.51	123
1628.93	153
1629.36	121
1629.78	139
1630.2	163
1630.63	117
1631.05	173
1631.47	115
1631.9	161
1632.32	115
1632.74	187
1633.17	105
1633.59	173
1634.01	97
1634.44	131
1634.86	133
1635.28	105
1635.71	159
1636.13	83
1636.55	129
1636.98	107
1637.4	173
1637.82	105
1638.25	155
1638.67	91
1639.09	159
1639.51	145
1639.94	131
1640.36	145
1640.78	87
1641.21	147
1641.63	107
1642.05	161
1642.47	145
1642.9	131
1643.32	107
1643.74	153
1644.17	143
1644.59	117
1645.01	159
1645.43	103
1645.86	145
1646.28	103
1646.7	115
1647.12	149
1647.55	107
1647.97	115
1648.39	153
1648.81	133
1649.23	155
1649.66	107
1650.08	107
1650.5	125
1650.92	109
1651.35	105
1651.77	153
1652.19	107
1652.61	109
1653.03	163
1653.45	115
1653.88	157
1654.3	71
1654.72	131
1655.14	95
1655.56	145
1655.99	109
1656.41	141
1656.83	129
1657.25	115
1657.67	161
1658.09	115
1658.52	159
1658.94	69
1659.36	155
1659.78	123
1660.2	151
1660.62	119
1661.04	141
1661.47	111
1661.89	115
1662.31	127
1662.73	107
1663.15	147
1663.57	59
1663.99	159
1664.41	99
1664.83	147
1665.26	127
1665.68	129
1666.1	141
1666.52	143
1666.94	157
1667.36	111
1667.78	133
1668.2	73
1668.62	149
1669.04	121
1669.46	105
1669.89	139
1670.31	113
1670.73	129
1671.15	131
1671.57	127
1671.99	143
1672.41	111
1672.83	117
1673.25	137
1673.67	133
1674.09	119
1674.51	117
1674.93	95
1675.35	123
1675.77	145
1676.19	85
1676.61	167
1677.03	83
1677.45	127
1677.87	137
1678.29	125
1678.71	127
1679.13	87
1679.55	123
1679.97	107
1680.39	151
1680.81	79
1681.23	159
1681.65	95
1682.07	141
1682.49	125
1682.91	131
1683.33	149
1683.75	93
1684.17	127
1684.59	123
1685.01	143
1685.43	95
1685.85	175
1686.27	79
1686.69	175
1687.11	113
1687.53	131
1687.95	143
1688.37	85
1688.78	143
1689.2	125
1689.62	137
1690.04	93
1690.46	125
1690.88	105
1691.3	139
1691.72	85
1692.14	99
1692.56	137
1692.98	89
1693.39	147
1693.81	141
1694.23	113
1694.65	137
1695.07	103
1695.49	131
1695.91	125
1696.33	117
1696.75	133
1697.16	113
1697.58	131
1698	121
1698.42	141
1698.84	83
1699.26	141
1699.68	81
1700.09	133
1700.51	121
1700.93	93
1701.35	149
1701.77	81
1702.19	127
1702.6	97
1703.02	137
1703.44	97
1703.86	151
1704.28	73
1704.69	147
1705.11	123
1705.53	99
1705.95	149
1706.37	103
1706.78	153
1707.2	91
1707.62	125
1708.04	115
1708.46	133
1708.87	89
1709.29	139
1709.71	131
1710.13	111
1710.54	137
1710.96	99
1711.38	133
1711.8	119
1712.22	129
1712.63	135
1713.05	97
1713.47	99
1713.89	147
1714.3	147
1714.72	139
1715.14	107
1715.56	103
1715.97	107
1716.39	129
1716.81	93
1717.22	155
1717.64	93
1718.06	109
1718.48	137
1718.89	109
1719.31	133
1719.73	57
1720.14	135
1720.56	127
1720.98	161
1721.39	105
1721.81	145
1722.23	77
1722.64	117
1723.06	141
1723.48	107
1723.89	169
1724.31	49
1724.73	151
1725.14	125
1725.56	149
1725.98	91
1726.39	135
1726.81	111
1727.23	143
1727.64	141
1728.06	123
1728.48	169
1728.89	61
1729.31	145
1729.72	105
1730.14	133
1730.56	117
1730.97	125
1731.39	109
1731.8	139
1732.22	121
1732.64	123
1733.05	139
1733.47	87
1733.89	141
1734.3	107
1734.72	105
1735.13	111
1735.55	93
1735.96	131
1736.38	125
1736.8	117
1737.21	131
1737.63	111
1738.04	105
1738.46	119
1738.87	127
1739.29	101
1739.71	143
1740.12	83
1740.54	137
1740.95	119
1741.37	81
1741.78	171
1742.2	103
1742.61	141
1743.03	97
1743.44	135
1743.86	121
1744.27	113
1744.69	107
1745.1	123
1745.52	147
1745.93	91
1746.35	169
1746.77	69
1747.18	143
1747.59	107
1748.01	133
1748.42	125
1748.84	105
1749.25	113
1749.67	129
1750.08	137
1750.5	93
1750.91	155
1751.33	83
1751.74	163
1752.16	87
1752.57	119
1752.99	125
1753.4	113
1753.81	123
1754.23	127
1754.64	109
1755.06	99
1755.47	129
1755.89	97
1756.3	139
1756.72	105
1757.13	119
1757.54	141
1757.96	93
1758.37	105
1758.78	129
1759.2	121
1759.61	145
1760.03	109
1760.44	119
1760.86	123
1761.27	115
1761.68	133
1762.1	117
1762.51	105
1762.92	99
1763.34	147
1763.75	93
1764.17	169
1764.58	95
1764.99	161
1765.41	115
1765.82	99
1766.23	125
1766.65	99
1767.06	133
1767.47	105
1767.89	139
1768.3	83
1768.71	159
1769.13	87
1769.54	137
1769.95	117
1770.37	111
1770.78	137
1771.19	99
1771.61	133
1772.02	83
1772.43	133
1772.85	97
1773.26	147
1773.67	71
1774.09	145
1774.5	111
1774.91	113
1775.32	121
1775.74	95
1776.15	129
1776.56	115
1776.97	131
1777.39	141
1777.8	127
1778.21	83
1778.62	153
1779.04	123
1779.45	111
1779.86	131
1780.28	91
1780.69	141
1781.1	127
1781.51	105
1781.92	135
1782.34	75
1782.75	101
1783.16	127
1783.57	113
1783.99	123
1784.4	93
1784.81	119
1785.22	129
1785.63	149
1786.05	85
1786.46	161
1786.87	83
1787.28	115
1787.69	121
1788.11	135
1788.52	149
1788.93	67
1789.34	139
1789.75	115
1790.17	153
1790.58	95
1790.99	159
1791.4	89
1791.81	121
1792.22	129
1792.63	103
1793.05	153
1793.46	61
1793.87	135
1794.28	111
1794.69	129
1795.1	93
1795.52	113
1795.93	87
1796.34	155
1796.75	103
1797.16	109
1797.57	121
1797.98	73
1798.39	119
1798.81	121
1799.22	113
1799.63	99
1800.04	109
1800.45	111
1800.86	123
1801.27	89
1801.68	115
1802.09	93
1802.5	119
1802.91	123
1803.32	111
1803.73	105
1804.15	127
1804.56	89
1804.97	125
1805.38	141
1805.79	119
1806.2	139
1806.61	105
1807.02	145
1807.43	121
1807.84	133
1808.25	77
1808.66	149
1809.07	79
1809.48	149
1809.89	143
1810.3	77
1810.71	147
1811.12	67
1811.53	131
1811.94	89
1812.35	143
1812.76	103
1813.17	125
1813.58	95
1813.99	161
1814.4	135
1814.81	91
1815.22	149
1815.63	75
1816.04	139
1816.45	85
1816.86	117
1817.27	123
1817.68	93
1818.09	101
1818.5	119
1818.91	113
1819.32	123
1819.73	147
1820.14	111
1820.55	135
1820.96	93
1821.37	131
1821.78	143
1822.19	101
1822.6	93
1823.01	129
1823.42	109
1823.82	151
1824.23	113
1824.64	123
1825.05	115
1825.46	125
1825.87	101
1826.28	139
1826.69	97
1827.1	105
1827.51	133
1827.91	107
1828.32	141
1828.73	53
1829.14	135
1829.55	113
1829.96	139
1830.37	95
1830.78	125
1831.18	87
1831.59	95
1832	127
1832.41	83
1832.82	157
1833.23	45
1833.64	155
1834.05	103
1834.45	149
1834.86	123
1835.27	123
1835.68	95
1836.09	117
1836.49	127
1836.9	87
1837.31	167
1837.72	51
1838.13	149
1838.53	105
1838.94	99
1839.35	121
1839.76	97
1840.17	107
1840.58	127
1840.98	137
1841.39	119
1841.8	115
1842.21	85
1842.61	151
1843.02	135
1843.43	129
1843.84	125
1844.25	103
1844.65	113
1845.06	143
1845.47	117
1845.88	147
1846.28	93.0486
1846.69	107.138
1847.1	148.187
1847.51	117.029
1847.91	117.666
1848.32	127.361
1848.73	111.712
1849.14	118.912
1849.54	123.194
1849.95	86.5274
1850.36	152.622
1850.77	94.1472
1851.17	128.551
1851.58	112.95
1851.99	119.795
1852.39	117.854
1852.8	93.2829
1853.21	103.413
1853.62	109.072
1854.02	147.825
1854.43	88.901
1854.84	158.729
1855.24	95.5964
1855.65	143.63
1856.06	116.462
1856.46	117.94
1856.87	147.106
1857.28	87.6144
1857.68	140.762
1858.09	123.98
1858.5	145.935
1858.9	94.783
1859.31	121.932
1859.72	110.628
1860.12	126.371
1860.53	113.014
1860.94	112.299
1861.34	132.726
1861.75	100.793
1862.15	131.541
1862.56	128.517
1862.97	118.156
1863.37	124.091
1863.78	109.56
1864.19	113.121
1864.59	125.22
1865	120.226
1865.4	120.288
1865.81	116.583
1866.22	123.386
1866.62	124.649
1867.03	109.15
1867.43	129.302
1867.84	119.921
1868.25	128.132
1868.65	127.215
1869.06	132.325
1869.46	102.515
1869.87	129.173
1870.28	110.824
1870.68	116.266
1871.09	132.689
1871.49	125.364
1871.9	124.544
1872.3	123.342
1872.71	105.412
1873.12	132.959
1873.52	115.988
1873.93	114.134
1874.33	129.919
1874.74	101.72
1875.14	127.722
1875.55	124.946
1875.95	108.366
1876.36	112.731
1876.76	126.311
1877.17	96.1485
1877.57	127.188
1877.98	117.204
1878.38	123.715
1878.79	130.781
1879.19	100.37
1879.6	120.495
1880	122.597
1880.41	109.199
1880.81	110.697
1881.22	118.341
1881.63	100.596
1882.03	127.038
1882.43	103.519
1882.84	134.83
1883.24	130.39
1883.65	105.557
1884.05	123.872
1884.46	129.428
1884.86	116.901
1885.27	128.838
1885.67	121.762
1886.08	120.764
1886.48	149.904
1886.89	110.516
1887.29	120.605
1887.69	136.005
1888.1	107.441
1888.5	111.21
1888.85	123
1889.26	129
1889.67	133
1890.08	93
1890.49	125
1890.9	109
1891.3	121
1891.71	99
1892.12	135
1892.53	93
1892.94	95
1893.35	143
1893.76	93
1894.17	143
1894.58	49
1894.99	139
1895.4	115
1895.81	133
1896.22	111
1896.62	145
1897.03	123
1897.44	95
1897.85	151
1898.26	83
1898.67	175
1899.08	63
1899.49	133
1899.9	123
1900.3	127
1900.71	113
1901.12	125
1901.53	119
1901.94	137
1902.35	123
1902.75	107
1903.16	153
1903.57	65
1903.98	139
1904.39	89
1904.8	131
1905.21	119
1905.61	107
1906.02	103
1906.43	123
1906.84	115
1907.25	113
1907.66	133
1908.06	75
1908.47	133
1908.88	105
1909.29	127
1909.7	117
1910.1	99
1910.51	135
1910.92	127
1911.33	97
1911.73	137
1912.14	83
1912.55	125
1912.96	135
1913.37	143
1913.77	121
1914.18	125
1914.59	95
1915	141
1915.4	143
1915.81	93
1916.22	147
1916.63	69
1917.03	145
1917.44	121
1917.85	129
1918.26	113
1918.66	109
1919.07	109
1919.48	121
1919.89	139
1920.29	101
1920.7	165
1921.11	73
1921.51	153
1921.92	113
1922.33	121
1922.73	123
1923.14	105
1923.55	97
1923.96	109
1924.36	135
1924.77	71
1925.18	147
1925.58	69
1925.99	151
1926.4	101
1926.8	121
1927.21	125
1927.62	95
1928.02	117
1928.43	131
1928.84	131
1929.24	75
1929.65	137
1930.06	83
1930.46	127
1930.87	101
1931.28	119
1931.68	137
1932.09	109
1932.49	113
1932.9	95
1933.31	107
1933.71	111
1934.12	105
1934.53	101
1934.93	117
1935.34	103
1935.74	123
1936.15	123
1936.56	101
1936.96	117
1937.37	137
1937.78	99
1938.18	145
1938.59	93
1938.99	143
1939.4	123
1939.8	95
1940.21	121
1940.62	111
1941.02	125
1941.43	109
1941.83	163
1942.24	97
1942.64	169
1943.05	75
1943.45	155
1943.86	115
1944.27	109
1944.67	131
1945.08	99
1945.48	129
1945.89	113
1946.29	133
1946.7	105
1947.1	151
1947.51	65
1947.91	145
1948.32	95
1948.72	95
1949.13	131
1949.53	95
1949.94	129
1950.34	95
1950.75	151
1951.15	105
1951.56	141
1951.96	63
1952.37	149
1952.77	113
1953.18	119
1953.58	143
1953.99	85
1954.39	141
1954.8	101
1955.2	139
1955.61	121
1956.01	97
1956.42	89
1956.82	141
1957.23	113
1957.63	91
1958.03	119
1958.44	103
1958.84	127
1959.25	135
1959.65	91
1960.06	179
1960.46	97
1960.86	111
1961.27	119
1961.67	115
1962.08	143
1962.48	85
1962.89	123
1963.29	111
1963.69	159
1964.1	99
1964.5	151
1964.91	63
1965.31	131
1965.71	125
1966.12	119
1966.52	137
1966.93	97
1967.33	117
1967.73	121
1968.14	149
1968.54	83
1968.94	159
1969.35	83
1969.75	151
1970.15	111
1970.56	113
1970.96	145
1971.37	89
1971.77	145
1972.17	117
1972.58	157
1972.98	97
1973.38	137
1973.79	93
1974.19	151
1974.59	103
1974.99	103
1975.4	141
1975.8	93
1976.21	127
1976.61	117
1977.01	123
1977.41	111
1977.82	121
1978.22	113
1978.62	121
1979.03	101
1979.43	123
1979.83	119
1980.24	107
1980.64	115
1981.04	149
1981.44	101
1981.85	149
1982.25	87
1982.65	129
1983.05	139
1983.46	103
1983.86	125
1984.26	105
1984.66	113
1985.07	105
1985.47	133
1985.87	101
1986.27	157
1986.68	73
1987.08	141
1987.48	117
1987.88	109
1988.29	137
1988.69	89
1989.09	111
1989.49	97
1989.89	157
1990.3	99
1990.7	153
1991.1	81
1991.5	171
1991.9	113
1992.31	109
1992.71	145
1993.11	93
1993.51	121
1993.91	107
1994.32	157
1994.72	123
1995.12	149
1995.52	83
1995.92	145
1996.32	131
1996.73	107
1997.13	147
1997.53	95
1997.93	145
1998.33	93
1998.73	125
1999.14	107
1999.54	117
1999.94	91
2000.34	141
2000.74	125
2001.14	115
2001.54	127
2001.94	101
2002.35	125
2002.75	133
2003.15	99
2003.55	139
2003.95	91
2004.35	103
2004.75	149
2005.15	109
2005.55	139
2005.96	103
2006.36	119
2006.76	125
2007.16	135
2007.56	99
2007.96	157
2008.36	87
2008.76	121
2009.16	125
2009.56	111
2009.96	149
2010.36	71
2010.76	121
2011.16	111
2011.57	151
2011.97	85
2012.37	145
2012.77	77
2013.17	139
2013.57	115
2013.97	117
2014.37	149
2014.77	73
2015.17	159
2015.57	111
2015.97	159
2016.37	99
2016.77	147
2017.17	101
2017.57	139
2017.97	127
2018.37	109
2018.77	167
2019.17	65
2019.57	153
2019.97	123
2020.37	125
2020.77	111
2021.17	119
2021.57	113
2021.97	145
2022.37	115
2022.77	121
2023.17	123
2023.57	79
2023.97	119
2024.37	117
2024.77	105
2025.17	117
2025.57	101
2025.97	135
2026.37	141
2026.77	97
2027.16	129
2027.56	99
2027.96	117
2028.36	133
2028.76	153
2029.16	111
2029.56	135
2029.96	93
2030.36	135
2030.76	141
2031.16	101
2031.56	143
2031.96	87
2032.35	135
2032.75	99
2033.15	131
2033.55	103
2033.95	149
2034.35	85
2034.75	137
2035.15	107
2035.54	79
2035.94	161
2036.34	77
2036.74	155
2037.14	117
2037.54	147
2037.94	95
2038.34	131
2038.74	79
2039.13	137
2039.53	139
2039.93	93
2040.33	165
2040.73	81
2041.12	153
2041.52	101
2041.92	141
2042.32	125
2042.72	115
2043.12	107
2043.51	139
2043.91	115
2044.31	95
2044.71	143
2045.11	83
2045.51	133
2045.9	103
2046.3	129
2046.7	129
2047.1	109
2047.49	93
2047.89	149
2048.29	107
2048.69	123
2049.09	113
2049.48	105
2049.88	127
2050.28	125
2050.68	101
2051.07	137
2051.47	97
2051.87	121
2052.27	121
2052.67	105
2053.06	135
2053.46	89
2053.86	135
2054.26	107
2054.65	139
2055.05	103
2055.45	153
2055.85	73
2056.24	131
2056.64	133
2057.04	95
2057.43	149
2057.83	57
2058.23	151
2058.62	111
2059.02	147
2059.42	97
2059.82	129
2060.21	89
2060.61	119
2061.01	141
2061.4	93
2061.8	171
2062.2	53
2062.59	159
2062.99	99
2063.39	143
2063.79	107
2064.18	123
2064.58	93
2064.97	141
2065.37	137
2065.77	117
2066.16	131
2066.56	79
2066.96	143
2067.35	125
2067.75	115
2068.15	111
2068.54	95
2068.94	119
2069.34	133
2069.73	103
2070.13	123
2070.52	117
2070.92	103
2071.32	137
2071.71	129
2072.11	113
2072.51	125
2072.9	83
2073.3	143
2073.69	139
2074.09	103
2074.49	131
2074.88	89
2075.28	127
2075.67	111
2076.07	141
2076.47	107
2076.86	131
2077.26	103
2077.65	123
2078.05	127
2078.44	79
2078.84	157
2079.23	79
2079.63	123
2080.03	91
2080.42	133
2080.82	105
2081.21	121
2081.61	95
2082	137
2082.4	145
2082.79	85
2083.19	173
2083.58	75
2083.98	141
2084.37	105
2084.77	139
2085.16	127
2085.56	121
2085.95	111
2086.35	123
2086.74	115
2087.14	99
2087.53	159
2087.93	109
2088.32	133
2088.72	101
2089.11	129
2089.51	115
2089.9	93
2090.3	109
2090.69	131
2091.09	121
2091.48	97
2091.88	155
2092.27	91
2092.67	139
2093.06	83
2093.46	111
2093.85	135
2094.25	101
2094.64	117
2095.03	137
2095.43	125
2095.82	137
2096.22	133
2096.61	131
2097.01	127
2097.4	119
2097.79	111
2098.19	117
2098.58	111
2098.98	117
2099.37	143
2099.76	93
2100.16	157
2100.55	57
2100.95	139
2101.34	107
2101.73	125
2102.13	97
2102.52	137
2102.92	99
2103.31	105
2103.7	151
2104.1	91
2104.49	153
2104.88	59
2105.28	171
2105.67	121
2106.07	125
2106.46	123
2106.85	107
2107.25	127
2107.64	111
2108.03	141
2108.43	101
2108.82	165
2109.21	61
2109.61	153
2110	117
2110.39	129
2110.79	121
2111.18	107
2111.57	103
2111.97	123
2112.36	127
2112.75	97
2113.15	151
2113.54	53
2113.93	143
2114.32	101
2114.72	115
2115.11	113
2115.5	93
2115.9	127
2116.29	119
2116.68	119
2117.08	117
2117.47	103
2117.86	117
2118.25	135
2118.65	115
2119.04	107
2119.43	131
2119.82	107
2120.22	133
2120.61	143
2121	95
2121.39	157
2121.79	71
2122.18	121
2122.57	133
2122.96	145
2123.36	121
2123.75	93
2124.14	121
2124.53	111
2124.93	139
2125.32	81
2125.71	157
2126.1	75
2126.49	149
2126.89	121
2127.28	101
2127.67	119
2128.06	89
2128.45	129
2128.85	137
2129.24	129
2129.63	79
2130.02	161
2130.41	87
2130.81	141
2131.2	107
2131.59	121
2131.98	137
2132.37	83
2132.76	117
2133.16	139
2133.55	133
2133.94	73
2134.33	157
2134.72	87
2135.11	151
2135.5	91
2135.9	117
2136.29	129
2136.68	89
2137.07	119
2137.46	125
2137.85	121
2138.24	117
2138.63	99
2139.03	99
2139.42	137
2139.81	99
2140.2	129
2140.59	143
2140.98	97
2141.37	113
2141.76	143
2142.15	97
2142.55	161
2142.94	89
2143.33	127
2143.72	117
2144.11	115
2144.5	129
2144.89	105
2145.28	131
2145.67	99
2146.06	139
2146.45	81
2146.84	153
2147.23	71
2147.62	139
2148.02	117
2148.4	109
2148.8	131
2149.19	117
2149.58	115
2149.97	83
2150.36	125
2150.75	83
2151.14	153
2151.53	51
2151.92	157
2152.31	103
2152.7	103
2153.09	123
2153.48	103
2153.87	119
2154.26	99
2154.65	141
2155.04	105
2155.43	139
2155.82	59
2156.21	147
2156.6	119
2156.99	133
2157.38	145
2157.77	103
2158.16	121
2158.55	121
2158.94	129
2159.33	119
2159.72	95
2160.11	87
2160.5	117
2160.89	123
2161.28	99
2161.66	111
2162.05	97
2162.44	127
2162.83	111
2163.22	103
2163.61	147
2164	91
2164.39	119
2164.78	131
2165.17	103
2165.56	143
2165.95	81
2166.34	95
2166.73	107
2167.11	129
2167.5	77
2167.89	155
2168.28	81
2168.67	109
2169.06	117
2169.45	115
2169.84	149
2170.23	89
2170.62	129
2171	121
2171.39	139
2171.78	85
2172.17	167
2172.56	75
2172.95	133
2173.34	115
2173.73	109
2174.11	155
2174.5	87
2174.89	133
2175.28	99
2175.67	147
2176.06	85
2176.45	131
2176.83	83
2177.22	143
2177.61	93
2178	95
2178.39	133
2178.78	59
2179.16	123
2179.55	113
2179.94	131
2180.33	99
2180.72	111
2181.1	91
2181.49	143
2181.88	109
2182.27	111
2182.66	133
2183.04	91
2183.43	129
2183.82	123
2184.21	117
2184.6	133
2184.98	101
2185.37	111
2185.76	123
2186.15	95
2186.53	117
2186.92	111
2187.31	115
2187.7	129
2188.08	139
2188.47	97
2188.86	131
2189.25	99
2189.63	127
2190.02	121
2190.41	71
2190.8	125
2191.18	77
2191.57	121
2191.96	107
2192.34	131
2192.73	87
2193.12	151
2193.51	81
2193.89	129
2194.28	121
2194.67	75
2195.06	157
2195.44	87
2195.83	155
2196.22	95
2196.6	163
2196.99	81
2197.38	149
2197.76	75
2198.15	119
2198.54	127
2198.92	87
2199.31	165
2199.7	75
2200.08	157
2200.47	93
2200.86	125
2201.24	117
2201.63	111
2202.02	109
2202.4	127
2202.79	123
2203.18	91
2203.56	137
2203.95	77
2204.34	139
2204.72	75
2205.11	107
2205.49	147
2205.88	105
2206.27	103
2206.65	133
2207.04	99
2207.43	119
2207.81	111
2208.2	115
2208.58	123
2208.97	109
2209.36	103
2209.74	131
2210.13	105
2210.51	99
2210.9	137
2211.29	105
2211.67	151
2212.06	77
2212.44	131
2212.83	125
2213.21	123
2213.6	91
2213.98	139
2214.37	75
2214.76	125
2215.14	121
2215.53	101
2215.91	130.874
2216.3	61.778
2216.69	140.693
2217.07	101.144
2217.46	139.537
2217.84	100.472
2218.23	125.084
2218.61	84.4133
2219	114.645
2219.38	129.44
2219.77	86.4245
2220.15	165.713
2220.54	77.8439
2220.92	156.004
2221.31	115.216
2221.69	124.201
2222.08	121.593
2222.46	104.879
2222.85	120.155
2223.23	114.955
2223.62	128.064
2224	111.384
2224.39	124.676
2224.77	72.402
2225.16	126.125
2225.54	109.627
2225.93	112.212
2226.31	120.969
2226.7	97.5121
2227.08	124.301
2227.47	112.315
2227.85	111.084
2228.23	111.359
2228.62	124.017
2229	121.014
2229.39	132.202
2229.77	121.007
2230.16	108.794
2230.54	114.362
2230.92	107.276
2231.31	132.892
2231.69	114.722
2232.08	99.4244
2232.46	121.191
2232.85	101.023
2233.23	112.994
2233.62	106.914
2234	121.469
2234.38	110.399
2234.77	138.65
2235.15	107.175
2235.54	131.939
2235.92	118.482
2236.3	103.641
2236.69	149.798
2237.07	104.545
2237.46	122.181
2237.84	96.3612
2238.22	115.132
2238.61	104.724
2238.99	116.333
2239.37	101.725
2239.76	119.078
2240.14	120.206
2240.53	102.607
2240.91	138.645
2241.29	93.0916
2241.68	118.3
2242.06	107.607
2242.44	115.603
2242.83	122.732
2243.21	116.055
2243.59	109.536
2243.98	128.326
2244.36	103.204
2244.74	109.798
2245.13	117.617
2245.51	118.923
2245.89	124.66
2246.28	128.576
2246.66	107.369
2247.04	140.278
2247.43	126.497
2247.81	91.6875
2248.19	146.192
2248.58	81.3686
2248.96	126.506
2249.34	96.9034
2249.73	121.578
2250.11	111.465
2250.49	127.751
2250.88	115.196
2251.26	127.53
2251.64	126.183
2252.02	87.8358
2252.41	150.148
2252.79	76.7635
2252.8	75
2253.18	145
2253.57	109
2253.96	117
2254.35	121
2254.74	109
2255.12	105
2255.51	123
2255.9	103
2256.29	97
2256.67	155
2257.06	85
2257.45	151
2257.84	99
2258.22	119
2258.61	131
2259	101
2259.39	107
2259.77	129
2260.16	111
2260.55	123
2260.94	117
2261.32	93
2261.71	123
2262.1	101
2262.48	101
2262.87	147
2263.26	101
2263.65	109
2264.03	129
2264.42	115
2264.81	131
2265.19	93
2265.58	113
2265.97	123
2266.35	135
2266.74	111
2267.13	133
2267.51	93
2267.9	107
2268.29	139
2268.67	89
2269.06	169
2269.45	57
2269.83	151
2270.22	111
2270.61	143
2270.99	113
2271.38	129
2271.77	95
2272.15	115
2272.54	147
2272.93	93
2273.31	143
2273.7	41
2274.08	147
2274.47	103
2274.86	123
2275.24	101
2275.63	105
2276.02	101
2276.4	117
2276.79	127
2277.17	97
2277.56	137
2277.95	53
2278.33	153
2278.72	117
2279.1	137
2279.49	111
2279.88	123
2280.26	131
2280.65	147
2281.03	129
2281.42	125
2281.8	143
2282.19	81
2282.58	147
2282.96	129
2283.35	125
2283.73	139
2284.12	115
2284.5	119
2284.89	127
2285.28	103
2285.66	131
2286.05	97
2286.43	111
2286.82	131
2287.2	129
2287.59	95
2287.97	137
2288.36	83
2288.74	117
2289.13	135
2289.51	89
2289.9	163
2290.28	85
2290.67	139
2291.05	119
2291.44	153
2291.82	109
2292.21	107
2292.59	105
2292.98	125
2293.36	141
2293.75	69
2294.13	165
2294.52	85
2294.9	141
2295.29	117
2295.67	131
2296.06	95
2296.44	113
2296.83	109
2297.21	133
2297.6	137
2297.98	75
2298.36	173
2298.75	77
2299.13	139
2299.52	81
2299.9	129
2300.29	111
2300.67	121
2301.06	121
2301.44	135
2301.82	125
2302.21	83
2302.59	159
2302.98	79
2303.36	133
2303.75	101
2304.13	135
2304.51	129
2304.9	101
2305.28	107
2305.67	115
2306.05	137
2306.44	105
2306.82	127
2307.2	107
2307.59	137
2307.97	105
2308.35	109
2308.74	141
2309.12	117
2309.51	91
2309.89	133
2310.27	117
2310.66	135
2311.04	97
2311.42	105
2311.81	117
2312.19	97
2312.57	111
2312.96	113
2313.34	89
2313.73	111
2314.11	135
2314.49	117
2314.88	153
2315.26	79
2315.64	137
2316.03	117
2316.41	125
2316.79	95
2317.18	117
2317.56	97
2317.94	109
2318.32	137
2318.71	107
2319.09	149
2319.47	67
2319.86	145
2320.24	111
2320.62	149
2321.01	99
2321.39	113
2321.77	103
2322.15	127
2322.54	133
2322.92	75
2323.3	171
2323.69	75
2324.07	157
2324.45	101
2324.83	131
2325.22	111
2325.6	121
2325.98	109
2326.36	127
2326.75	123
2327.13	129
2327.51	149
2327.89	67
2328.28	133
2328.66	105
2329.04	131
2329.42	117
2329.81	99
2330.19	125
2330.57	137
2330.95	125
2331.33	133
2331.72	125
2332.1	105
2332.48	149
2332.86	115
2333.24	117
2333.63	105
2334.01	89
2334.39	117
2334.77	127
2335.15	107
2335.54	137
2335.92	101
2336.3	121
2336.68	121
2337.06	137
2337.44	101
2337.83	127
2338.21	99
2338.59	131
2338.97	123
2339.35	85
2339.73	157
2340.12	93
2340.5	149
2340.88	93
2341.26	137
2341.64	91
2342.02	159
2342.41	91
2342.79	141
2343.17	129
2343.55	69
2343.93	189
2344.31	81
2344.69	157
2345.07	87
2345.45	145
2345.84	105
2346.22	121
2346.6	111
2346.98	139
2347.36	121
2347.74	101
2348.12	141
2348.5	77
2348.88	141
2349.26	81
2349.65	131
2350.03	135
2350.41	125
2350.79	89
2351.17	127
2351.55	105
2351.93	123
2352.31	135
2352.69	99
2353.07	139
2353.45	89
2353.83	115
2354.21	129
2354.59	93
2354.98	101
2355.35	135
2355.74	119
2356.12	135
2356.5	99
2356.88	113
2357.26	127
2357.64	133
2358.02	99
2358.4	159
2358.78	85
2359.16	113
2359.54	159
2359.92	115
2360.3	135
2360.68	55
2361.06	143
2361.44	107
2361.82	135
2362.2	89
2362.58	157
2362.96	93
2363.34	117
2363.72	127
2364.1	101
2364.48	151
2364.86	47
2365.24	139
2365.62	113
2366	153
2366.38	113
2366.75	147
2367.14	85
2367.51	133
2367.89	107
2368.27	101
2368.65	173
2369.03	73
2369.41	133
2369.79	105
2370.17	141
2370.55	107
2370.93	137
2371.31	107
2371.69	147
2372.07	127
2372.45	91
2372.83	151
2373.2	67
2373.58	153
2373.96	91
2374.34	121
2374.72	119
2375.1	105
2375.48	131
2375.86	135
2376.24	107
2376.61	129
2376.99	115
2377.37	77
2377.75	137
2378.13	127
2378.51	107
2378.89	123
2379.27	113
2379.65	127
2380.02	121
2380.4	95
2380.78	151
2381.16	109
2381.54	119
2381.92	125
2382.3	147
2382.67	137
2383.05	129
2383.43	85
2383.81	113
2384.19	157
2384.57	101
2384.94	157
2385.32	97
2385.7	139
2386.08	125
2386.46	141
2386.83	105
2387.21	143
2387.59	99
2387.97	145
2388.35	133
2388.73	83
2389.1	149
2389.48	77
2389.86	153
2390.24	115
2390.62	145
2390.99	105
2391.37	127
2391.75	91
2392.13	117
2392.5	109
2392.88	85
2393.26	181
2393.64	101
2394.01	159
2394.39	101
2394.77	137
2395.15	113
2395.52	121
2395.9	125
2396.28	135
2396.66	141
2397.04	103
2397.41	157
2397.79	81
2398.17	153
2398.54	99
2398.92	131
2399.3	127
2399.68	123
2400.05	111
2400.43	145
2400.81	119
2401.18	143
2401.56	121
2401.94	105
2402.32	151
2402.69	123
2403.07	127
2403.45	143
2403.82	97
2404.2	121
2404.58	147
2404.95	115
2405.33	129
2405.71	105
2406.09	149
2406.46	113
2406.84	141
2407.22	101
2407.59	143
2407.97	99
2408.34	127
2408.72	115
2409.1	109
2409.47	161
2409.85	85
2410.23	143
2410.6	119
2410.98	161
2411.36	105
2411.73	145
2412.11	91
2412.49	125
2412.86	141
2413.24	115
2413.61	157
2413.99	67
2414.37	153
2414.74	121
2415.12	145
2415.5	93
2415.87	143
2416.25	117
2416.62	139
2417	131
2417.37	119
2417.75	153
2418.13	77
2418.5	163
2418.88	131
2419.25	131
2419.63	107
2420.01	137
2420.38	99
2420.76	151
2421.13	117
2421.51	131
2421.88	133
2422.26	101
2422.64	147
2423.01	139
2423.39	141
2423.76	133
2424.14	119
2424.51	127
2424.89	127
2425.26	133
2425.64	147
2426.01	123
2426.39	117
2426.76	121
2427.14	145
2427.52	121
2427.89	133
2428.26	105
2428.64	169
2429.02	177
2429.39	115
2429.77	147
2430.14	123
2430.52	159
2430.89	133
2431.26	149
2431.64	107
2432.02	175
2432.39	97
2432.77	143
2433.14	149
2433.51	103
2433.89	185
2434.26	123
2434.64	171
2435.01	117
2435.39	181
2435.76	135
2436.14	173
2436.51	117
2436.89	165
2437.26	167
2437.63	129
2438.01	215
2438.38	97
2438.76	179
2439.13	117
2439.51	171
2439.88	155
2440.26	173
2440.63	123
2441	183
2441.38	163
2441.75	163
2442.13	183
2442.5	141
2442.87	199
2443.25	135
2443.62	177
2444	155
2444.37	169
2444.74	157
2445.12	195
2445.49	171
2445.87	169
2446.24	173
2446.61	143
2446.99	189
2447.36	155
2447.73	165
2448.11	189
2448.48	137
2448.86	175
2449.23	195
2449.6	157
2449.98	191
2450.35	159
2450.72	191
2451.1	189
2451.47	183
2451.84	171
2452.22	207
2452.59	149
2452.97	145
2453.34	211
2453.71	163
2454.08	261
2454.46	111
2454.83	195
2455.2	163
2455.58	189
2455.95	157
2456.32	213
2456.7	139
2457.07	161
2457.44	185
2457.82	159
2458.19	217
2458.56	111
2458.93	193
2459.31	171
2459.68	195
2460.05	157
2460.43	205
2460.8	147
2461.17	189
2461.54	191
2461.92	171
2462.29	211
2462.66	115
2463.03	205
2463.41	169
2463.78	181
2464.15	135
2464.52	177
2464.9	139
2465.27	169
2465.64	179
2466.01	147
2466.39	191
2466.76	101
2467.13	181
2467.5	145
2467.88	145
2468.25	161
2468.62	133
2468.99	163
2469.37	167
2469.74	143
2470.11	155
2470.48	147
2470.85	127
2471.22	187
2471.6	181
2471.97	139
2472.34	167
2472.71	145
2473.08	177
2473.46	177
2473.83	129
2474.2	181
2474.57	129
2474.94	143
2475.32	159
2475.69	173
2476.06	137
2476.43	155
2476.8	123
2477.17	175
2477.55	165
2477.92	129
2478.29	161
2478.66	115
2479.03	165
2479.4	141
2479.77	189
2480.15	115
2480.52	155
2480.89	109
2481.26	175
2481.63	155
2482	111
2482.37	181
2482.74	91
2483.12	173
2483.49	97
2483.86	167
2484.23	133
2484.6	167
2484.97	145
2485.34	163
2485.71	159
2486.08	125
2486.46	173
2486.83	99
2487.2	175
2487.57	121
2487.94	155
2488.31	153
2488.68	147
2489.05	127
2489.42	155
2489.79	153
2490.16	127
2490.53	183
2490.9	117
2491.27	145
2491.64	119
2492.01	133
2492.38	167
2492.76	129
2493.13	109
2493.5	163
2493.87	135
2494.24	147
2494.61	133
2494.98	125
2495.35	163
2495.72	129
2496.09	123
2496.46	165
2496.83	97
2497.2	133
2497.57	157
2497.94	131
2498.31	149
2498.68	99
2499.05	153
2499.42	147
2499.79	151
2500.16	101
2500.53	177
2500.9	115
2501.27	155
2501.64	149
2502.01	129
2502.38	155
2502.75	89
2503.12	145
2503.49	127
2503.86	165
2504.23	99
2504.6	153
2504.97	79
2505.34	135
2505.7	149
2506.07	119
2506.44	177
2506.81	63
2507.18	169
2507.55	129
2507.92	147
2508.29	119
2508.66	153
2509.03	111
2509.4	145
2509.77	137
2510.14	125
2510.5	159
2510.88	101
2511.24	169
2511.61	123
2511.98	141
2512.35	121
2512.72	139
2513.09	107
2513.46	167
2513.83	125
2514.2	107
2514.56	139
2514.93	81
2515.3	159
2515.67	113
2516.04	133
2516.41	151
2516.78	99
2517.15	137
2517.51	129
2517.88	125
2518.25	137
2518.62	127
2518.99	119
2519.36	129
2519.73	155
2520.09	129
2520.46	131
2520.83	113
2521.2	127
2521.57	143
2521.94	105
2522.3	155
2522.67	113
2523.04	133
2523.41	133
2523.78	153
2524.15	115
2524.51	141
2524.88	123
2525.25	133
2525.62	149
2525.98	99
2526.35	167
2526.72	133
2527.09	149
2527.46	109
2527.83	129
2528.19	113
2528.56	149
2528.93	101
2529.3	143
2529.66	125
2530.03	95
2530.4	165
2530.77	83
2531.13	141
2531.5	111
2531.87	155
2532.24	123
2532.61	137
2532.97	107
2533.34	143
2533.71	155
2534.07	109
2534.44	183
2534.81	87
2535.18	159
2535.54	115
2535.91	153
2536.28	141
2536.65	113
2537.01	139
2537.38	131
2537.75	131
2538.11	95
2538.48	157
2538.85	99
2539.22	159
2539.58	119
2539.95	119
2540.32	137
2540.68	95
2541.05	109
2541.42	151
2541.78	117
2542.15	143
2542.52	127
2542.89	123
2543.25	147
2543.62	125
2543.99	147
2544.35	165
2544.72	115
2545.08	123
2545.45	137
2545.82	97
2546.19	161
2546.55	121
2546.92	127
2547.28	135
2547.65	141
2548.02	121
2548.38	155
2548.75	105
2549.12	119
2549.48	139
2549.85	111
2550.21	145
2550.58	69
2550.95	151
2551.31	113
2551.68	153
2552.05	111
2552.41	129
2552.78	111
2553.14	117
2553.51	123
2553.88	99
2554.24	159
2554.61	71
2554.97	177
2555.34	107
2555.71	137
2556.07	115
2556.44	139
2556.8	113
2557.17	107
2557.53	149
2557.9	111
2558.27	169
2558.63	87
2559	149
2559.36	117
2559.73	129
2560.09	121
2560.46	103
2560.82	123
2561.19	151
2561.55	139
2561.92	127
2562.29	125
2562.65	101
2563.02	163
2563.38	131
2563.75	113
2564.11	117
2564.48	113
2564.84	135
2565.21	147
2565.57	117.157
2565.94	150.194
2566.3	132.796
2566.67	124.992
2567.03	145.552
2567.4	133.119
2567.76	102.272
2568.13	148.942
2568.49	111.221
2568.86	147.275
2569.22	134.554
2569.59	110.288
2569.95	160.535
2570.32	102.198
2570.68	144.907
2571.05	116.04
2571.41	174.634
2571.78	99.028
2572.14	141.657
2572.51	105.995
2572.87	151.151
2573.23	152.979
2573.6	105.532
2573.96	171.396
2574.33	90.8913
2574.69	164.721
2575.06	107.36
2575.42	150.117
2575.79	118.349
2576.15	133.896
2576.51	118.618
2576.88	140.758
2577.24	148.266
2577.61	111.565
2577.97	157.801
2578.34	96.9102
2578.7	154.069
2579.06	129.921
2579.43	157.517
2579.79	119.445
2580.16	131.131
2580.52	129.518
2580.88	134.596
2581.25	130.065
2581.61	123.187
2581.98	152.027
2582.34	109.984
2582.7	142.71
2583.07	118.412
2583.43	140.391
2583.8	133.129
2584.16	124.204
2584.52	134.811
2584.89	147.05
2585.25	137.66
2585.61	142.184
2585.98	132.098
2586.34	132.036
2586.7	148.897
2587.07	137.501
2587.43	142.025
2587.8	127.797
2588.16	121.422
2588.52	155.899
2588.88	144.304
2589.25	126.959
2589.61	140.973
2589.97	122.078
2590.34	151.024
2590.7	156.571
2591.06	140.608
2591.43	142.956
2591.79	138.156
2592.15	128.376
2592.52	146.742
2592.88	148.315
2593.24	142.088
2593.61	156.287
2593.97	121.879
2594.33	136.917
2594.7	150
2595.06	110.199
2595.42	181.423
2595.78	104.319
2596.15	140.779
2596.51	147.91
2596.87	164.594
2597.24	150.386
2597.6	146.831
2597.96	135.58
2598.32	151.037
2598.69	173.659
2599.05	117.907
2599.41	183.212
2599.78	109.273
2600.14	157.455
2600.5	148.371
2600.86	173.259
2600.95	183
2601.31	155
2601.68	141
2602.05	137
2602.42	153
2602.78	167
2603.15	105
2603.52	205
2603.89	119
2604.25	219
2604.62	127
2604.99	151
2605.35	163
2605.72	129
2606.09	151
2606.46	153
2606.82	171
2607.19	119
2607.56	189
2607.92	119
2608.29	177
2608.66	141
2609.03	165
2609.39	205
2609.76	153
2610.13	161
2610.49	171
2610.86	151
2611.23	129
2611.59	165
2611.96	133
2612.33	189
2612.69	141
2613.06	153
2613.43	179
2613.79	139
2614.16	163
2614.53	173
2614.89	171
2615.26	157
2615.62	159
2615.99	185
2616.36	179
2616.72	175
2617.09	167
2617.46	209
2617.82	161
2618.19	173
2618.56	181
2618.92	167
2619.29	219
2619.65	145
2620.02	217
2620.39	183
2620.75	197
2621.12	189
2621.48	205
2621.85	161
2622.22	175
2622.58	205
2622.95	185
2623.31	271
2623.68	159
2624.04	237
2624.41	189
2624.78	231
2625.14	215
2625.51	211
2625.87	187
2626.24	225
2626.6	245
2626.97	209
2627.34	267
2627.7	153
2628.07	277
2628.43	219
2628.8	237
2629.16	215
2629.53	233
2629.9	201
2630.26	245
2630.63	215
2630.99	231
2631.36	279
2631.72	211
2632.09	275
2632.45	217
2632.82	251
2633.18	225
2633.55	259
2633.91	251
2634.28	269
2634.64	253
2635.01	263
2635.37	277
2635.74	261
2636.1	297
2636.47	313
2636.83	293
2637.2	303
2637.56	245
2637.93	281
2638.29	347
2638.66	287
2639.02	317
2639.39	293
2639.75	323
2640.12	331
2640.48	351
2640.84	291
2641.21	347
2641.57	331
2641.94	357
2642.3	371
2642.67	315
2643.03	351
2643.4	331
2643.76	427
2644.13	363
2644.49	379
2644.85	359
2645.22	421
2645.58	371
2645.95	399
2646.31	399
2646.68	415
2647.04	461
2647.4	395
2647.77	485
2648.13	433
2648.5	473
2648.86	433
2649.22	513
2649.59	419
2649.95	511
2650.32	481
2650.68	461
2651.04	567
2651.41	465
2651.77	555
2652.14	507
2652.5	513
2652.86	551
2653.23	531
2653.59	535
2653.95	615
2654.32	577
2654.68	571
2655.05	635
2655.41	583
2655.77	645
2656.14	643
2656.5	633
2656.86	621
2657.23	677
2657.59	633
2657.95	703
2658.32	751
2658.68	731
2659.04	759
2659.41	743
2659.77	797
2660.13	769
2660.5	763
2660.86	811
2661.22	781
2661.59	801
2661.95	807
2662.31	787
2662.68	895
2663.04	837
2663.4	883
2663.76	825
2664.13	891
2664.49	905
2664.85	967
2665.22	901
2665.58	1017
2665.94	971
2666.3	1001
2666.67	1047
2667.03	1017
2667.39	1043
2667.76	1047
2668.12	1067
2668.48	1023
2668.84	1091
2669.21	1051
2669.57	1103
2669.93	1093
2670.29	1123
2670.66	1165
2671.02	1105
2671.38	1173
2671.74	1169
2672.11	1235
2672.47	1117
2672.83	1227
2673.19	1173
2673.56	1193
2673.92	1233
2674.28	1219
2674.64	1235
2675	1161
2675.37	1231
2675.73	1183
2676.09	1263
2676.45	1143
2676.81	1231
2677.18	1215
2677.54	1243
2677.9	1243
2678.26	1215
2678.62	1229
2678.99	1213
2679.35	1241
2679.71	1167
2680.07	1227
2680.43	1139
2680.8	1201
2681.16	1087
2681.52	1183
2681.88	1079
2682.24	1117
2682.6	1149
2682.97	1091
2683.33	1175
2683.69	1133
2684.05	1097
2684.41	1093
2684.77	1067
2685.13	1059
2685.5	1083
2685.86	1031
2686.22	1021
2686.58	999
2686.94	989
2687.3	1043
2687.66	933
2688.03	949
2688.39	967
2688.75	865
2689.11	947
2689.47	943
2689.83	855
2690.19	919
2690.55	845
2690.91	843
2691.28	839
2691.64	805
2692	761
2692.36	793
2692.72	771
2693.08	725
2693.44	731
2693.8	719
2694.16	725
2694.52	693
2694.88	691
2695.24	645
2695.61	751
2695.97	653
2696.33	729
2696.69	587
2697.05	637
2697.41	603
2697.77	547
2698.13	553
2698.49	569
2698.85	567
2699.21	529
2699.57	593
2699.93	515
2700.29	603
2700.65	447
2701.01	567
2701.37	481
2701.73	523
2702.09	451
2702.45	415
2702.81	465
2703.18	429
2703.53	427
2703.89	433
2704.25	455
2704.62	387
2704.98	469
2705.33	393
2705.69	409
2706.06	437
2706.42	387
2706.78	379
2707.13	363
2707.49	365
2707.85	387
2708.22	351
2708.57	323
2708.93	357
2709.29	345
2709.65	331
2710.01	327
2710.37	301
2710.73	335
2711.09	341
2711.45	287
2711.81	319
2712.17	293
2712.53	283
2712.89	331
2713.25	297
2713.61	287
2713.97	297
2714.33	267
2714.69	251
2715.05	291
2715.41	249
2715.76	317
2716.12	217
2716.48	277
2716.84	291
2717.2	279
2717.56	243
2717.92	215
2718.28	249
2718.64	229
2719	291
2719.35	183
2719.71	295
2720.07	209
2720.43	281
2720.79	219
2721.15	247
2721.51	243
2721.87	211
2722.23	227
2722.59	235
2722.94	205
2723.3	195
2723.66	269
2724.02	169
2724.38	273
2724.74	189
2725.1	223
2725.46	205
2725.81	211
2726.17	207
2726.53	215
2726.89	195
2727.25	155
2727.61	237
2727.96	167
2728.32	235
2728.68	177
2729.04	205
2729.4	207
2729.75	157
2730.11	193
2730.47	207
2730.83	173
2731.19	187
2731.55	187
2731.91	195
2732.26	197
2732.62	171
2732.98	179
2733.34	185
2733.69	175
2734.05	177
2734.41	189
2734.77	161
2735.13	203
2735.48	129
2735.84	203
2736.2	175
2736.56	179
2736.91	155
2737.27	215
2737.63	153
2737.99	149
2738.35	167
2738.7	147
2739.06	217
2739.42	125
2739.78	197
2740.13	177
2740.49	175
2740.85	139
2741.21	187
2741.56	151
2741.92	145
2742.28	189
2742.64	129
2742.99	205
2743.35	101
2743.71	201
2744.06	133
2744.42	175
2744.78	145
2745.14	169
2745.49	137
2745.85	179
2746.21	169
2746.57	119
2746.92	183
2747.28	83
2747.64	187
2747.99	121
2748.35	175
2748.71	155
2749.06	155
2749.42	145
2749.78	149
2750.13	179
2750.49	139
2750.85	191
2751.2	97
2751.56	185
2751.92	163
2752.27	171
2752.63	157
2752.99	133
2753.34	149
2753.7	189
2754.06	149
2754.41	143
2754.77	165
2755.13	97
2755.48	181
2755.84	153
2756.2	159
2756.55	139
2756.91	125
2757.26	137
2757.62	167
2757.98	139
2758.33	149
2758.69	161
2759.04	135
2759.4	179
2759.76	169
2760.11	123
2760.47	137
2760.83	123
2761.18	145
2761.54	157
2761.89	117
2762.25	197
2762.61	125
2762.96	179
2763.32	143
2763.67	165
2764.03	125
2764.38	139
2764.74	121
2765.1	159
2765.45	147
2765.81	107
2766.16	159
2766.52	89
2766.88	163
2767.23	93
2767.59	165
2767.94	123
2768.3	121
2768.65	119
2769.01	141
2769.36	167
2769.72	83
2770.07	173
2770.43	101
2770.78	165
2771.14	127
2771.49	157
2771.85	137
2772.21	149
2772.56	123
2772.92	145
2773.27	153
2773.63	93
2773.98	161
2774.34	93
2774.69	171
2775.05	113
2775.4	139
2775.76	141
2776.11	151
2776.47	103
2776.82	139
2777.18	145
2777.53	127
2777.89	167
2778.24	95
2778.59	155
2778.95	109
2779.3	121
2779.66	141
2780.01	125
2780.37	127
2780.72	139
2781.08	141
2781.43	151
2781.79	155
2782.14	143
2782.49	147
2782.85	141
2783.2	131
2783.56	137
2783.91	107
2784.27	133
2784.62	153
2784.98	135
2785.33	171
2785.68	101
2786.04	157
2786.39	129
2786.75	147
2787.1	121
2787.46	177
2787.81	113
2788.16	139
2788.52	137
2788.87	125
2789.22	167
2789.58	115
2789.93	139
2790.29	117
2790.64	153
2790.99	97
2791.35	177
2791.7	97
2792.06	149
2792.41	155
2792.76	117
2793.12	179
2793.47	81
2793.82	153
2794.18	109
2794.53	161
2794.88	111
2795.24	151
2795.59	101
2795.95	145
2796.3	153
2796.65	119
2797.01	159
2797.36	79
2797.71	165
2798.07	123
2798.42	151
2798.77	121
2799.13	129
2799.48	113
2799.83	137
2800.19	119
2800.54	133
2800.89	145
2801.24	87
2801.6	135
2801.95	125
2802.3	121
2802.66	123
2803.01	105
2803.36	103
2803.72	141
2804.07	105
2804.42	133
2804.77	137
2805.13	131
2805.48	149
2805.83	135
2806.19	121
2806.54	141
2806.89	113
2807.24	131
2807.6	133
2807.95	101
2808.3	127
2808.65	129
2809.01	117
2809.36	131
2809.71	167
2810.06	91
2810.42	169
2810.77	81
2811.12	149
2811.47	139
2811.83	115
2812.18	157
2812.53	113
2812.88	139
2813.24	111
2813.59	157
2813.94	97
2814.29	167
2814.64	87
2815	157
2815.35	133
2815.7	123
2816.05	163
2816.4	97
2816.76	155
2817.11	105
2817.46	189
2817.81	103
2818.16	151
2818.52	99
2818.87	147
2819.22	127
2819.57	121
2819.92	163
2820.28	101
2820.63	145
2820.98	111
2821.33	135
2821.68	127
2822.03	141
2822.39	85
2822.74	163
2823.09	125
2823.44	125
2823.79	149
2824.14	109
2824.49	145
2824.85	105
2825.2	135
2825.55	123
2825.9	123
2826.25	93
2826.6	147
2826.95	129
2827.31	137
2827.66	143
2828.01	113
2828.36	131
2828.71	127
2829.06	135
2829.41	151
2829.76	103
2830.11	107
2830.46	131
2830.82	145
2831.17	149
2831.52	97
2831.87	121
2832.22	121
2832.57	123
2832.92	89
2833.27	141
2833.62	93
2833.97	123
2834.32	135
2834.68	121
2835.03	149
2835.38	81
2835.73	141
2836.08	123
2836.43	145
2836.78	95
2837.13	159
2837.48	91
2837.83	127
2838.18	133
2838.53	115
2838.88	159
2839.23	87
2839.58	133
2839.93	121
2840.28	157
2840.63	97
2840.98	155
2841.33	101
2841.68	155
2842.03	137
2842.38	115
2842.73	153
2843.08	75
2843.43	149
2843.78	111
2844.13	143
2844.48	101
2844.83	163
2845.18	119
2845.53	151
2845.88	141
2846.23	121
2846.58	137
2846.93	79
2847.28	133
2847.63	109
2847.98	127
2848.33	97
2848.68	121
2849.03	105
2849.38	145
2849.73	111
2850.08	113
2850.43	155
2850.78	113
2851.13	147
2851.48	129
2851.83	115
2852.18	127
2852.53	101
2852.88	119
2853.23	147
2853.57	109
2853.92	135
2854.27	117
2854.62	123
2854.97	135
2855.32	145
2855.67	103
2856.02	139
2856.37	91
2856.72	125
2857.07	129
2857.42	93
2857.76	139
2858.11	131
2858.46	129
2858.81	91
2859.16	159
2859.51	105
2859.86	175
2860.21	105
2860.56	155
2860.91	125
2861.25	89
2861.6	131
2861.95	89
2862.3	143
2862.65	113
2863	157
2863.35	87
2863.69	159
2864.04	95
2864.39	145
2864.74	109
2865.09	113
2865.44	157
2865.78	83
2866.13	121
2866.48	101
2866.83	145
2867.18	111
2867.53	139
2867.88	75
2868.22	147
2868.57	95
2868.92	125
2869.27	143
2869.62	107
2869.96	129
2870.31	107
2870.66	121
2871.01	125
2871.36	129
2871.7	85
2872.05	141
2872.4	113
2872.75	113
2873.1	123
2873.44	111
2873.79	141
2874.14	139
2874.49	125
2874.84	139
2875.18	121
2875.53	85
2875.88	139
2876.23	143
2876.57	129
2876.92	119
2877.27	97
2877.62	121
2877.97	137
2878.31	101
2878.66	155
2879.01	77
2879.36	125
2879.7	115
2880.05	127
2880.4	125
2880.74	85
2881.09	117
2881.44	131
2881.79	135
2882.13	97
2882.48	157
2882.83	77
2883.18	143
2883.52	123
2883.87	137
2884.22	127
2884.56	89
2884.91	135
2885.26	129
2885.61	133
2885.95	87
2886.3	169
2886.65	79
2886.99	153
2887.34	117
2887.69	127
2888.03	139
2888.38	75
2888.73	135
2889.07	113
2889.42	141
2889.77	75
2890.11	163
2890.46	61
2890.81	147
2891.15	109
2891.5	125
2891.85	141
2892.19	73
2892.54	143
2892.89	133
2893.23	135
2893.58	93
2893.93	145
2894.27	105
2894.62	149
2894.96	103
2895.31	115
2895.66	157
2896	103
2896.35	135.01
2896.7	131.029
2897.04	117.3
2897.39	120.877
2897.73	110.897
2898.08	134.433
2898.43	128.852
2898.77	100.217
2899.12	136.197
2899.46	131.712
2899.81	104.867
2900.16	117.884
2900.5	140.09
2900.85	101.505
2901.19	127.622
2901.54	89.0362
2901.88	112.695
2902.23	147.334
2902.58	106.063
2902.92	132.665
2903.27	112.504
2903.61	107.424
2903.96	131.184
2904.31	131.346
2904.65	101.257
2905	158.317
2905.34	75.9325
2905.69	139.911
2906.03	123.368
2906.38	107.191
2906.72	137.004
2907.07	111.664
2907.42	109.75
2907.76	105.369
2908.11	144.979
2908.45	88.6519
2908.8	160.917
2909.14	73.3866
2909.49	153.3
2909.83	118.417
2910.18	114.954
2910.52	138.85
2910.87	114.025
2911.21	125.895
2911.56	100.711
2911.9	140.962
2912.25	107.74
2912.59	155.103
2912.94	72.1835
2913.28	142.792
2913.63	125.963
2913.97	125.665
2914.32	137.992
2914.66	104.857
2915.01	126.179
2915.35	139.186
2915.7	147.034
2916.04	106.172
2916.39	139.134
2916.73	94.564
2917.08	141.814
2917.42	132.921
2917.77	126.13
2918.11	146.757
2918.46	112.169
2918.8	124.139
2919.15	122.96
2919.49	116.352
2919.83	120.977
2920.18	113.756
2920.52	96.9011
2920.87	121.436
2921.21	113.646
2921.56	109.54
2921.9	119.092
2922.24	108.3
2922.59	114.538
2922.93	129.615
2923.28	106.745
2923.62	113.739
2923.97	115.718
2924.31	109.671
2924.65	122.683
2925	128.788
2925.34	124.24
2925.69	125.26
2926.03	109.06
2926.38	112.329
2926.72	135.366
2927.06	119.823
2927.41	119.079
2927.75	126.893
2928.09	118.058
2928.44	136.972
2928.78	129.244
2929.13	139.094
2929.47	125.629
2929.81	120.906
2930.16	108.801
2930.5	125.681
2930.79	129
2931.14	73
2931.49	169
2931.84	59
2932.19	143
2932.54	85
2932.88	133
2933.23	83
2933.58	131
2933.93	97
2934.28	137
2934.63	151
2934.97	81
2935.32	193
2935.67	69
2936.02	155
2936.37	91
2936.71	143
2937.06	127
2937.41	131
2937.76	115
2938.11	121
2938.46	121
2938.8	97
2939.15	159
2939.5	95
2939.85	151
2940.19	111
2940.54	145
2940.89	147
2941.24	125
2941.59	87
2941.93	139
2942.28	99
2942.63	97
2942.98	147
2943.32	101
2943.67	149
2944.02	101
2944.37	109
2944.72	117
2945.06	109
2945.41	111
2945.76	143
2946.11	137
2946.45	115
2946.8	133
2947.15	107
2947.49	119
2947.84	119
2948.19	117
2948.54	153
2948.88	97
2949.23	117
2949.58	135
2949.93	143
2950.27	137
2950.62	107
2950.97	99
2951.31	125
2951.66	131
2952.01	93
2952.35	145
2952.7	85
2953.05	123
2953.4	137
2953.74	101
2954.09	155
2954.44	91
2954.78	133
2955.13	121
2955.48	147
2955.82	115
2956.17	151
2956.52	91
2956.86	139
2957.21	135
2957.56	123
2957.9	153
2958.25	73
2958.6	137
2958.94	107
2959.29	155
2959.64	85
2959.98	147
2960.33	99
2960.68	139
2961.02	135
2961.37	125
2961.72	147
2962.06	65
2962.41	147
2962.76	105
2963.1	155
2963.45	77
2963.79	151
2964.14	89
2964.49	135
2964.83	127
2965.18	105
2965.52	145
2965.87	65
2966.22	141
2966.56	115
2966.91	137
2967.25	99
2967.6	131
2967.95	103
2968.29	137
2968.64	107
2968.98	133
2969.33	149
2969.68	79
2970.02	119
2970.37	117
2970.71	111
2971.06	109
2971.4	113
2971.75	113
2972.1	121
2972.44	113
2972.79	131
2973.13	131
2973.48	97
2973.82	129
2974.17	149
2974.51	119
2974.86	125
2975.21	97
2975.55	143
2975.9	145
2976.24	93
2976.59	123
2976.93	131
2977.28	91
2977.62	109
2977.97	135
2978.31	83
2978.66	169
2979	67
2979.35	125
2979.69	111
2980.04	93
2980.38	149
2980.73	119
2981.07	139
2981.42	85
2981.76	133
2982.11	93
2982.45	175
2982.8	73
2983.14	163
2983.49	123
2983.83	111
2984.18	151
2984.52	119
2984.87	127
2985.21	141
2985.56	141
2985.9	103
2986.25	145
2986.59	79
2986.94	135
2987.28	117
2987.62	133
2987.97	129
2988.31	103
2988.66	109
2989	105
2989.35	149
2989.69	101
2990.03	149
2990.38	75
2990.72	141
2991.07	105
2991.41	129
2991.76	139
2992.1	101
2992.44	115
2992.79	139
2993.13	141
2993.48	121
2993.82	127
2994.17	105
2994.51	139
2994.85	129
2995.2	105
2995.54	125
2995.89	87
2996.23	125
2996.57	171
2996.92	97
2997.26	149
2997.6	91
2997.95	121
2998.29	123
2998.64	121
2998.98	121
2999.32	111
2999.67	101
