#Acq. time (s)=	30
#Accumulations=	1
#Range (cm-¹)=	1050...3000 (30 s) 
#Windows=	6
#Auto scanning=	Off
#Autofocus=	Off
#AutoExposure=	Off
#Spike filter=	Off
#Delay time (s)=	0
#Binning=	1
#Readout mode=	Signal
#DeNoise=	Off
#ICS correction=	Off
#Dark correction=	Off
#Inst. Process=	Off
#Detector Gain=	High Sensitivity
#Detector ADC=	45 kHz       
#Detector temperature (°C)=	-60.1
#Instrument=	LabRAM
#Detector=	Syncerity
#Objective=	x50LWD
#Grating=	1800
#Filter=	25%
#Laser (nm)=	532
#Hole=	100
#E-Cal_Neon=	0
#StageXY=	Marzhauser
#StageZ=	Marzhauser
#X (µm)=	0
#Y (µm)=	0
#Z (µm)=	-1678.85
#Spectral res.(cm-¹)=	1.9
#Full time(mm:ss)=	3:09
#AC=	Not calibrated
#Project=	
#Sample=	
#Site=	
#Title=	Spot 2 350K REVERSE
#Remark=	
#Date=	19.02.2026 16:07
#Acquired=	19.02.2026 16:07:01
#Edit:Spike=	19.02.2026 16:08:03
#Edit:Spike=	19.02.2026 16:08:38
#Edit:Spike=	19.02.2026 16:09:46
#Edit:Spike=	19.02.2026 16:09:50
#AxisType[0]=Intens
#AxisUnit[0]=Cnt
#AxisType[1]=Spectr
#AxisUnit[1]=1/cm
1050.13	129
1050.59	129
1051.05	141
1051.51	101
1051.97	145
1052.44	111
1052.9	155
1053.36	91
1053.82	157
1054.28	81
1054.74	159
1055.2	133
1055.67	131
1056.13	139
1056.59	107
1057.05	135
1057.51	101
1057.97	147
1058.43	97
1058.89	181
1059.36	63
1059.82	159
1060.28	111
1060.74	133
1061.2	153
1061.66	103
1062.12	147
1062.58	127
1063.04	141
1063.5	117
1063.96	149
1064.43	71
1064.89	155
1065.35	137
1065.81	141
1066.27	141
1066.73	105
1067.19	125
1067.65	103
1068.11	141
1068.57	109
1069.03	141
1069.49	85
1069.95	155
1070.41	133
1070.87	105
1071.33	135
1071.79	111
1072.25	133
1072.71	141
1073.17	135
1073.63	121
1074.09	131
1074.55	91
1075.01	163
1075.47	125
1075.93	143
1076.39	125
1076.85	115
1077.31	131
1077.77	139
1078.23	137
1078.69	131
1079.15	111
1079.61	99
1080.07	137
1080.53	133
1080.99	129
1081.45	121
1081.91	113
1082.37	139
1082.83	143
1083.29	115
1083.75	153
1084.21	105
1084.66	111
1085.12	137
1085.58	137
1086.04	127
1086.5	115
1086.96	107
1087.42	125
1087.88	149
1088.34	111
1088.8	165
1089.25	85
1089.71	141
1090.17	127
1090.63	123
1091.09	131
1091.55	121
1092.01	119
1092.47	115
1092.92	155
1093.38	81
1093.84	161
1094.3	85
1094.76	143
1095.22	145
1095.68	123
1096.13	113
1096.59	127
1097.05	91
1097.51	141
1097.97	143
1098.43	87
1098.88	157
1099.34	79
1099.8	143
1100.26	119
1100.72	135
1101.17	99
1101.63	125
1102.09	109
1102.55	155
1103.01	129
1103.46	81
1103.92	171
1104.38	67
1104.84	163
1105.29	87
1105.75	147
1106.21	115
1106.67	117
1107.12	103
1107.58	129
1108.04	123
1108.5	85
1108.95	173
1109.41	75
1109.87	169
1110.33	109
1110.78	155
1111.24	141
1111.7	119
1112.16	95
1112.61	139
1113.07	119
1113.53	113
1113.98	135
1114.44	89
1114.9	157
1115.35	103
1115.81	157
1116.27	137
1116.72	131
1117.18	101
1117.64	135
1118.1	119
1118.55	123
1119.01	145
1119.47	91
1119.92	149
1120.38	123
1120.84	137
1121.29	139
1121.75	113
1122.2	129
1122.66	135
1123.12	137
1123.57	149
1124.03	173
1124.49	115
1124.94	145
1125.4	129
1125.86	139
1126.31	179
1126.77	125
1127.22	131
1127.68	143
1128.14	115
1128.59	135
1129.05	123
1129.5	115
1129.96	123
1130.41	137
1130.87	117
1131.33	141
1131.78	89
1132.24	103
1132.69	129
1133.15	121
1133.61	135
1134.06	97
1134.52	107
1134.97	127
1135.43	151
1135.88	113
1136.34	167
1136.79	107
1137.25	109
1137.7	133
1138.16	141
1138.61	157
1139.07	85
1139.52	125
1139.98	125
1140.43	165
1140.89	103
1141.34	161
1141.8	97
1142.25	131
1142.71	129
1143.16	141
1143.62	145
1144.07	79
1144.53	153
1144.98	123
1145.44	165
1145.89	81
1146.35	169
1146.8	99
1147.26	151
1147.71	149
1148.16	113
1148.62	157
1149.07	59
1149.53	179
1149.98	119
1150.44	163
1150.89	99
1151.35	157
1151.8	99
1152.25	143
1152.71	139
1153.16	125
1153.62	167
1154.07	93
1154.52	135
1154.98	139
1155.43	153
1155.89	93
1156.34	141
1156.79	99
1157.25	151
1157.7	123
1158.16	109
1158.61	141
1159.06	83
1159.52	141
1159.97	117
1160.42	147
1160.88	87
1161.33	143
1161.78	109
1162.24	141
1162.69	115
1163.14	117
1163.6	181
1164.05	99
1164.5	155
1164.96	105
1165.41	139
1165.86	97
1166.32	133
1166.77	107
1167.22	143
1167.68	131
1168.13	115
1168.58	161
1169.04	83
1169.49	153
1169.94	123
1170.39	129
1170.85	117
1171.3	99
1171.75	113
1172.2	163
1172.66	105
1173.11	119
1173.56	133
1174.01	101
1174.47	153
1174.92	151
1175.37	117
1175.82	127
1176.28	105
1176.73	139
1177.18	151
1177.63	95
1178.09	119
1178.54	147
1178.99	119
1179.44	125
1179.89	145
1180.35	119
1180.8	151
1181.25	105
1181.7	127
1182.15	131
1182.61	103
1183.06	133
1183.51	121
1183.96	131
1184.41	111
1184.87	127
1185.32	119
1185.77	175
1186.22	85
1186.67	149
1187.12	131
1187.58	133
1188.03	135
1188.48	131
1188.93	127
1189.38	121
1189.83	161
1190.28	105
1190.73	175
1191.19	79
1191.64	141
1192.09	119
1192.54	115
1192.99	147
1193.44	113
1193.89	125
1194.34	97
1194.8	163
1195.25	99
1195.7	197
1196.15	73
1196.6	145
1197.05	123
1197.5	121
1197.95	149
1198.4	113
1198.85	137
1199.3	105
1199.75	155
1200.2	101
1200.66	171
1201.11	83
1201.56	159
1202.01	115
1202.46	131
1202.91	127
1203.36	103
1203.81	125
1204.26	103
1204.71	129
1205.16	113
1205.61	163
1206.06	81
1206.51	157
1206.96	121
1207.41	143
1207.86	157
1208.31	113
1208.76	121
1209.21	127
1209.66	147
1210.11	109
1210.56	135
1211.01	81
1211.46	133
1211.91	115
1212.36	139
1212.81	149
1213.26	109
1213.71	135
1214.16	127
1214.61	143
1215.05	115
1215.51	141
1215.95	95
1216.4	157
1216.85	163
1217.3	113
1217.75	129
1218.2	121
1218.65	131
1219.1	131
1219.55	117
1220	125
1220.45	135
1220.9	83
1221.34	149
1221.79	135
1222.24	129
1222.69	135
1223.14	103
1223.59	137
1224.04	135
1224.49	117
1224.94	173
1225.38	115
1225.83	99
1226.28	137
1226.73	125
1227.18	133
1227.63	139
1228.07	105
1228.52	139
1228.97	157
1229.42	117
1229.87	147
1230.32	93
1230.76	113
1231.21	129
1231.66	141
1232.11	103
1232.56	135
1233.01	117
1233.45	111
1233.9	145
1234.35	109
1234.8	167
1235.25	87
1235.69	165
1236.14	145
1236.59	139
1237.04	117
1237.49	123
1237.93	117
1238.38	141
1238.83	157
1239.28	77
1239.72	169
1240.17	91
1240.62	155
1241.07	127
1241.51	147
1241.96	123
1242.41	137
1242.86	125
1243.3	135
1243.75	141
1244.2	89
1244.65	179
1245.09	111
1245.54	169
1245.99	121
1246.44	149
1246.88	119
1247.33	135
1247.78	99
1248.22	125
1248.67	147
1249.12	79
1249.56	193
1250.01	89
1250.46	181
1250.9	103
1251.35	143
1251.8	121
1252.24	133
1252.69	121
1253.14	131
1253.58	161
1254.03	91
1254.48	177
1254.92	85
1255.37	147
1255.82	105
1256.26	139
1256.71	135
1257.15	111
1257.6	123
1258.05	147
1258.49	145
1258.94	89
1259.39	181
1259.83	93
1260.28	175
1260.72	99
1261.17	171
1261.62	131
1262.06	145
1262.51	103
1262.95	147
1263.4	137
1263.85	101
1264.29	169
1264.74	87
1265.18	163
1265.63	99
1266.07	135
1266.52	137
1266.97	117
1267.41	117
1267.86	125
1268.3	145
1268.75	101
1269.19	161
1269.64	93
1270.08	149
1270.53	105
1270.97	127
1271.42	137
1271.86	109
1272.31	141
1272.76	137
1273.2	131
1273.64	107
1274.09	155
1274.53	93
1274.98	145
1275.42	105
1275.87	141
1276.31	147
1276.76	107
1277.2	131
1277.65	147
1278.09	123
1278.54	143
1278.98	131
1279.43	137
1279.87	129
1280.32	115
1280.76	131
1281.21	151
1281.65	109
1282.09	123
1282.54	141
1282.98	127
1283.43	153
1283.87	107
1284.32	109
1284.76	133
1285.21	135
1285.65	117
1286.09	143
1286.54	103
1286.98	125
1287.42	157
1287.87	109
1288.31	139
1288.76	81
1289.2	137
1289.64	135
1290.09	143
1290.53	113
1290.98	181
1291.42	99
1291.86	141
1292.31	167
1292.75	133
1293.19	163
1293.64	91
1294.08	141
1294.53	113
1294.97	171
1295.41	123
1295.85	169
1296.3	107
1296.74	129
1297.19	137
1297.63	105
1298.07	163
1298.51	77
1298.96	151
1299.4	133
1299.84	151
1300.29	125
1300.73	153
1301.17	91
1301.62	163
1302.06	139
1302.5	105
1302.94	165
1303.39	79
1303.83	157
1304.27	121
1304.72	153
1305.16	81
1305.6	169
1306.04	85
1306.49	155
1306.93	127
1307.37	113
1307.81	157
1308.26	63
1308.7	161
1309.14	109
1309.58	159
1310.03	109
1310.47	149
1310.91	109
1311.35	159
1311.8	153
1312.24	133
1312.68	167
1313.12	67
1313.56	149
1314	123
1314.45	157
1314.89	123
1315.33	147
1315.77	121
1316.22	165
1316.66	117
1317.1	125
1317.54	143
1317.98	101
1318.43	159
1318.87	141
1319.31	141
1319.75	123
1320.19	139
1320.63	115
1321.07	155
1321.51	111
1321.96	125
1322.4	151
1322.84	103
1323.28	155
1323.72	131
1324.16	145
1324.6	135
1325.05	161
1325.49	127
1325.93	153
1326.37	135
1326.81	147
1327.25	179
1327.69	117
1328.13	131
1328.57	147
1329.02	121
1329.45	133
1329.9	111
1330.34	153
1330.78	147
1331.22	117
1331.66	133
1332.1	137
1332.54	133
1332.98	151
1333.42	177
1333.86	133
1334.3	189
1334.74	125
1335.18	137
1335.62	151
1336.07	121
1336.5	151
1336.95	145
1337.39	131
1337.83	129
1338.27	181
1338.71	123
1339.15	185
1339.59	115
1340.03	161
1340.47	169
1340.91	135
1341.35	157
1341.79	135
1342.23	141
1342.67	137
1343.11	159
1343.55	127
1343.99	175
1344.43	99
1344.86	169
1345.31	145
1345.74	137
1346.18	153
1346.62	125
1347.06	153
1347.5	105
1347.94	161
1348.38	103
1348.82	191
1349.26	95
1349.7	159
1350.14	125
1350.58	117
1351.02	157
1351.46	119
1351.9	157
1352.33	103
1352.77	161
1353.21	125
1353.65	189
1354.09	97
1354.53	153
1354.97	125
1355.41	113
1355.85	167
1356.29	119
1356.72	149
1357.16	105
1357.6	161
1358.04	103
1358.48	161
1358.92	83
1359.36	173
1359.79	123
1360.23	135
1360.67	153
1361.11	101
1361.55	137
1361.99	105
1362.43	153
1362.87	111
1363.3	147
1363.74	73
1364.18	173
1364.62	133
1365.06	137
1365.49	143
1365.93	109
1366.37	135
1366.81	95
1367.25	147
1367.68	139
1368.12	151
1368.56	71
1369	167
1369.44	129
1369.87	131
1370.31	167
1370.75	103
1371.19	151
1371.62	125
1372.06	153
1372.5	145
1372.94	133
1373.37	105
1373.81	145
1374.25	137
1374.69	113
1375.12	127
1375.56	119
1376	149
1376.44	157
1376.87	143
1377.31	145
1377.75	125
1378.19	129
1378.62	151
1379.06	135
1379.5	137
1379.93	139
1380.37	111
1380.81	125
1381.25	143
1381.68	131
1382.12	157
1382.56	101
1382.99	115
1383.43	121
1383.87	163
1384.3	129
1384.74	117
1385.18	101
1385.61	143
1386.05	161
1386.49	91
1386.92	163
1387.36	77
1387.8	155
1388.23	131
1388.67	155
1389.1	127
1389.54	129
1389.98	107
1390.41	145
1390.85	161
1391.29	79
1391.72	157
1392.16	57
1392.59	163
1393.03	113
1393.47	171
1393.9	119
1394.34	139
1394.77	117
1395.21	125
1395.65	139
1396.08	65
1396.52	155
1396.95	85
1397.39	161
1397.82	115
1398.26	147
1398.7	127
1399.13	133
1399.57	103
1400	149
1400.44	135
1400.87	81
1401.31	179
1401.74	83
1402.18	173
1402.62	101
1403.05	153
1403.49	127
1403.92	149
1404.36	115
1404.79	157
1405.23	123
1405.66	89
1406.1	175
1406.53	67
1406.97	153
1407.4	95
1407.84	133
1408.27	131
1408.71	127
1409.14	125
1409.58	139
1410.01	125
1410.45	101
1410.88	157
1411.31	91
1411.75	167
1412.18	117
1412.62	137
1413.05	155
1413.49	111
1413.92	107
1414.36	173
1414.79	139
1415.23	133
1415.66	151
1416.1	109
1416.53	145
1416.96	115
1417.4	137
1417.83	147
1418.27	127
1418.7	121
1419.13	135
1419.57	107
1420	143
1420.44	129
1420.87	115
1421.3	135
1421.74	109
1422.17	125
1422.61	151
1423.04	95
1423.47	117
1423.91	153
1424.34	123
1424.77	141
1425.21	119
1425.64	129
1426.07	127
1426.51	129
1426.94	123
1427.38	153
1427.81	91
1428.24	123
1428.68	149
1429.11	119
1429.54	149
1429.98	103
1430.41	145
1430.84	123
1431.28	129
1431.71	93
1432.14	163
1432.57	93
1433.01	129
1433.44	131
1433.87	123
1434.31	165
1434.74	91
1435.17	141
1435.61	121
1436.04	165
1436.47	99
1436.9	165
1437.34	87
1437.77	137
1438.2	145
1438.63	113
1439.07	167
1439.5	79
1439.93	151
1440.36	127
1440.8	159
1441.23	93
1441.66	143
1442.09	77
1442.53	129
1442.96	135
1443.39	123
1443.82	159
1444.26	83
1444.69	155
1445.12	133
1445.55	155
1445.98	81
1446.42	163
1446.85	91
1447.28	137
1447.71	129
1448.14	111
1448.57	173
1449.01	83
1449.44	161
1449.87	105
1450.3	141
1450.73	89
1451.17	145
1451.6	73
1452.03	145
1452.46	123
1452.89	113
1453.32	165
1453.76	51
1454.19	157
1454.62	131
1455.05	131
1455.48	93
1455.91	141
1456.34	111
1456.77	151
1457.21	135
1457.64	133
1458.07	155
1458.5	84.9216
1458.93	148.321
1459.36	132.664
1459.79	124.849
1460.22	92.9827
1460.65	139.229
1461.08	109.522
1461.52	165.604
1461.95	117.626
1462.38	140.94
1462.81	148.708
1463.24	92.4373
1463.67	159.21
1464.1	127.492
1464.53	137.552
1464.96	111.215
1465.39	121.818
1465.82	106.25
1466.25	131.461
1466.68	133.808
1467.11	128.854
1467.54	125.234
1467.98	101.148
1468.41	126.576
1468.84	140.457
1469.27	119.013
1469.7	130.065
1470.13	122.386
1470.56	120.507
1470.99	139.382
1471.42	110.494
1471.85	125.763
1472.28	144.564
1472.71	105.995
1473.14	137.765
1473.57	146.59
1474	96.7892
1474.43	138.243
1474.86	101.634
1475.29	145.477
1475.72	153.031
1476.15	125.805
1476.58	125.957
1477.01	137.312
1477.44	108.853
1477.87	126.94
1478.3	151.891
1478.72	113.936
1479.15	144.554
1479.58	116.991
1480.01	135.084
1480.44	122.219
1480.87	129.02
1481.3	111.265
1481.73	148.956
1482.16	107.109
1482.59	136.487
1483.02	149.037
1483.45	105.685
1483.88	149.329
1484.31	103.112
1484.74	140.795
1485.17	110.443
1485.59	144.649
1486.02	117.363
1486.45	146.732
1486.88	106.377
1487.31	125.718
1487.74	126.339
1488.17	102.709
1488.6	149.591
1489.02	83.9573
1489.45	136.478
1489.88	113.408
1490.31	137.371
1490.74	116.981
1491.17	153.778
1491.6	120.039
1492.03	128.356
1492.45	142.06
1492.88	126.473
1493.31	155.508
1493.74	119.332
1494.17	117.765
1494.6	121.695
1495.02	139.099
1495.45	134.704
1495.88	139.407
1496.31	113.736
1496.74	127.336
1497.17	141.247
1497.59	132.495
1498.02	146.452
1498.45	124.681
1498.88	135.424
1499.31	124.017
1499.73	122.956
1500.16	125.818
1500.59	134.955
1501.02	125.641
1501.45	109.605
1501.87	138.472
1502.13	115
1502.56	121
1502.99	129
1503.43	107
1503.86	127
1504.29	115
1504.72	143
1505.16	117
1505.59	157
1506.02	85
1506.46	151
1506.89	129
1507.32	133
1507.75	149
1508.19	111
1508.62	137
1509.05	141
1509.49	125
1509.92	127
1510.35	119
1510.78	87
1511.21	157
1511.65	125
1512.08	137
1512.51	129
1512.94	103
1513.38	149
1513.81	127
1514.24	113
1514.67	137
1515.11	127
1515.54	113
1515.97	157
1516.4	123
1516.83	127
1517.27	117
1517.7	119
1518.13	129
1518.56	135
1518.99	131
1519.42	149
1519.86	115
1520.29	103
1520.72	137
1521.15	145
1521.58	133
1522.01	141
1522.45	117
1522.88	147
1523.31	143
1523.74	126.2
1524.17	139
1524.6	85
1525.04	139
1525.47	137
1525.9	145
1526.33	119
1526.76	121
1527.19	131
1527.62	147
1528.05	159
1528.49	103
1528.92	177
1529.35	93
1529.78	163
1530.21	145
1530.64	139
1531.07	159
1531.5	143
1531.93	127
1532.37	141
1532.8	151
1533.23	101
1533.66	181
1534.09	93
1534.52	151
1534.95	123
1535.38	143
1535.81	129
1536.24	133
1536.67	111
1537.1	133
1537.53	145
1537.96	91
1538.39	177
1538.82	85
1539.26	185
1539.68	127
1540.12	153
1540.55	125
1540.98	129
1541.41	147
1541.84	143
1542.27	161
1542.7	83
1543.13	199
1543.56	81
1543.99	163
1544.42	107
1544.85	151
1545.28	133
1545.71	115
1546.14	133
1546.57	149
1547	153
1547.43	101
1547.86	167
1548.29	91
1548.72	181
1549.14	109
1549.57	151
1550.01	133
1550.43	119
1550.86	141
1551.29	153
1551.72	137
1552.15	129
1552.58	157
1553.01	103
1553.44	175
1553.87	125
1554.3	131
1554.73	161
1555.16	145
1555.59	147
1556.01	153
1556.44	141
1556.87	145
1557.3	187
1557.73	117
1558.16	165
1558.59	115
1559.02	153
1559.45	147
1559.88	139
1560.3	117
1560.73	161
1561.16	147
1561.59	145
1562.02	137
1562.45	105
1562.88	161
1563.31	139
1563.73	147
1564.16	187
1564.59	119
1565.02	143
1565.45	157
1565.88	135
1566.3	169
1566.73	125
1567.16	155
1567.59	119
1568.02	157
1568.45	129
1568.88	221
1569.3	137
1569.73	149
1570.16	175
1570.59	149
1571.01	183
1571.44	127
1571.87	165
1572.3	153
1572.73	195
1573.15	141
1573.58	205
1574.01	99
1574.44	155
1574.87	183
1575.29	175
1575.72	213
1576.15	101
1576.58	185
1577	159
1577.43	215
1577.86	157
1578.29	207
1578.71	145
1579.14	197
1579.57	217
1580	193
1580.42	213
1580.85	117
1581.28	203
1581.71	201
1582.13	217
1582.56	155
1582.99	227
1583.41	197
1583.84	189
1584.27	227
1584.7	199
1585.12	269
1585.55	151
1585.98	273
1586.4	245
1586.83	295
1587.26	253
1587.68	323
1588.11	279
1588.54	325
1588.96	331
1589.39	347
1589.82	423
1590.24	353
1590.67	417
1591.1	397
1591.52	491
1591.95	399
1592.38	513
1592.8	447
1593.23	505
1593.65	467
1594.08	487
1594.51	497
1594.93	411
1595.36	451
1595.79	443
1596.21	421
1596.64	367
1597.06	365
1597.49	341
1597.92	361
1598.34	309
1598.77	297
1599.19	327
1599.62	257
1600.05	297
1600.47	247
1600.9	267
1601.32	231
1601.75	229
1602.18	217
1602.6	241
1603.03	203
1603.45	201
1603.88	229
1604.3	171
1604.73	207
1605.15	205
1605.58	189
1606	193
1606.43	157
1606.86	155
1607.28	177
1607.71	161
1608.13	167
1608.56	183
1608.98	145
1609.41	163
1609.83	169
1610.26	123
1610.68	165
1611.11	139
1611.53	135
1611.96	183
1612.38	154.5
1612.81	153.7
1613.23	161
1613.66	135
1614.08	147
1614.51	157
1614.93	131
1615.36	185
1615.78	129
1616.21	177
1616.63	147
1617.06	129
1617.48	143
1617.9	135
1618.33	143
1618.75	137
1619.18	187
1619.6	121
1620.03	177
1620.45	91
1620.88	169
1621.3	157
1621.72	129
1622.15	137
1622.57	157
1623	141
1623.42	127
1623.85	169
1624.27	107
1624.69	179
1625.12	97
1625.54	165
1625.97	129
1626.39	115
1626.81	145
1627.24	105
1627.66	139
1628.08	103
1628.51	149
1628.93	109
1629.36	193
1629.78	79
1630.2	163
1630.63	113
1631.05	125
1631.47	147
1631.9	101
1632.32	129
1632.74	105
1633.17	137
1633.59	91
1634.01	173
1634.44	69
1634.86	165
1635.28	105
1635.71	133
1636.13	151
1636.55	115
1636.98	147
1637.4	109
1637.82	165
1638.25	93
1638.67	175
1639.09	75
1639.51	185
1639.94	107
1640.36	129
1640.78	147
1641.21	97
1641.63	135
1642.05	117
1642.47	137
1642.9	105
1643.32	161
1643.74	71
1644.17	141
1644.59	125
1645.01	147
1645.43	137
1645.86	107
1646.28	127
1646.7	109
1647.12	131
1647.55	131
1647.97	139
1648.39	73
1648.81	139
1649.23	141
1649.66	137
1650.08	145
1650.5	103
1650.92	119
1651.35	153
1651.77	123
1652.19	137
1652.61	139
1653.03	99
1653.45	163
1653.88	113
1654.3	125
1654.72	141
1655.14	103
1655.56	145
1655.99	143
1656.41	115
1656.83	151
1657.25	101
1657.67	109
1658.09	147
1658.52	131
1658.94	129
1659.36	137
1659.78	111
1660.2	137
1660.62	155
1661.04	117
1661.47	157
1661.89	83
1662.31	131
1662.73	111
1663.15	137
1663.57	113
1663.99	133
1664.41	107
1664.83	135
1665.26	151
1665.68	73
1666.1	141
1666.52	89
1666.94	149
1667.36	107
1667.78	135
1668.2	113
1668.62	127
1669.04	113
1669.46	125
1669.89	125
1670.31	83
1670.73	179
1671.15	81
1671.57	153
1671.99	111
1672.41	141
1672.83	97
1673.25	135
1673.67	77
1674.09	139
1674.51	139
1674.93	73
1675.35	171
1675.77	77
1676.19	159
1676.61	89
1677.03	155
1677.45	103
1677.87	141
1678.29	109
1678.71	147
1679.13	117
1679.55	89
1679.97	173
1680.39	85
1680.81	141
1681.23	99
1681.65	139
1682.07	121
1682.49	147
1682.91	109
1683.33	143
1683.75	119
1684.17	113
1684.59	159
1685.01	93
1685.43	145
1685.85	135
1686.27	131
1686.69	135
1687.11	111
1687.53	103
1687.95	155
1688.37	121
1688.78	109
1689.2	125
1689.62	91
1690.04	131
1690.46	113
1690.88	121
1691.3	121
1691.72	121
1692.14	89
1692.56	147
1692.98	133
1693.39	131
1693.81	147
1694.23	103
1694.65	153
1695.07	115
1695.49	101
1695.91	143
1696.33	103
1696.75	103
1697.16	131
1697.58	119
1698	139
1698.42	115
1698.84	99
1699.26	137
1699.68	125
1700.09	101
1700.51	153
1700.93	79
1701.35	115
1701.77	129
1702.19	99
1702.6	125
1703.02	85
1703.44	103
1703.86	113
1704.28	137
1704.69	105
1705.11	155
1705.53	97
1705.95	119
1706.37	133
1706.78	115
1707.2	157
1707.62	91
1708.04	149
1708.46	125
1708.87	157
1709.29	101
1709.71	157
1710.13	91
1710.54	115
1710.96	145
1711.38	105
1711.8	141
1712.22	71
1712.63	131
1713.05	131
1713.47	145
1713.89	109
1714.3	173
1714.72	85
1715.14	127
1715.56	121
1715.97	105
1716.39	165
1716.81	57
1717.22	145
1717.64	111
1718.06	163
1718.48	85
1718.89	157
1719.31	75
1719.73	121
1720.14	137
1720.56	107
1720.98	173
1721.39	77
1721.81	155
1722.23	115
1722.64	151
1723.06	87
1723.48	165
1723.89	79
1724.31	145
1724.73	121
1725.14	117
1725.56	143
1725.98	57
1726.39	123
1726.81	103
1727.23	163
1727.64	163
1728.06	167.8
1728.48	153.16
1728.89	147
1729.31	125
1729.72	101
1730.14	135
1730.56	73
1730.97	141
1731.39	125
1731.8	147
1732.22	101
1732.64	141
1733.05	97
1733.47	135
1733.89	95
1734.3	117
1734.72	147
1735.13	95
1735.55	127
1735.96	127
1736.38	125
1736.8	111
1737.21	107
1737.63	105
1738.04	137
1738.46	97
1738.87	127
1739.29	153
1739.71	105
1740.12	131
1740.54	137
1740.95	99
1741.37	129
1741.78	115
1742.2	105
1742.61	145
1743.03	113
1743.44	123
1743.86	117
1744.27	101
1744.69	125
1745.1	139
1745.52	113
1745.93	135
1746.35	123
1746.77	127
1747.18	137
1747.59	93
1748.01	139
1748.42	137
1748.84	103
1749.25	117
1749.67	141
1750.08	81
1750.5	165
1750.91	91
1751.33	135
1751.74	103
1752.16	103
1752.57	133
1752.99	127
1753.4	131
1753.81	115
1754.23	137
1754.64	95
1755.06	165
1755.47	65
1755.89	151
1756.3	121
1756.72	113
1757.13	129
1757.54	93
1757.96	129
1758.37	93
1758.78	169
1759.2	81
1759.61	163
1760.03	71
1760.44	151
1760.86	133
1761.27	91
1761.68	153
1762.1	119
1762.51	117
1762.92	95
1763.34	129
1763.75	101
1764.17	157
1764.58	65
1764.99	143
1765.41	123
1765.82	139
1766.23	133
1766.65	117
1767.06	111
1767.47	109
1767.89	151
1768.3	97
1768.71	155
1769.13	47
1769.54	163
1769.95	109
1770.37	127
1770.78	113
1771.19	109
1771.61	121
1772.02	111
1772.43	123
1772.85	99
1773.26	145
1773.67	55
1774.09	157
1774.5	107
1774.91	133
1775.32	125
1775.74	85
1776.15	123
1776.56	105
1776.97	125
1777.39	115
1777.8	143
1778.21	75
1778.62	145
1779.04	121
1779.45	113
1779.86	137
1780.28	103
1780.69	129
1781.1	123
1781.51	113
1781.92	109
1782.34	97
1782.75	77
1783.16	139
1783.57	105
1783.99	113
1784.4	119
1784.81	103
1785.22	127
1785.63	133
1786.05	119
1786.46	131
1786.87	107
1787.28	105
1787.69	137
1788.11	119
1788.52	109
1788.93	125
1789.34	105
1789.75	135
1790.17	131
1790.58	101
1790.99	135
1791.4	105
1791.81	95
1792.22	113
1792.63	143
1793.05	111
1793.46	127
1793.87	99
1794.28	133
1794.69	147
1795.1	87
1795.52	151
1795.93	91
1796.34	125
1796.75	129
1797.16	125
1797.57	125
1797.98	103
1798.39	91
1798.81	125
1799.22	123
1799.63	91
1800.04	153
1800.45	105
1800.86	137
1801.27	113
1801.68	137
1802.09	107
1802.5	105
1802.91	107
1803.32	125
1803.73	139
1804.15	77
1804.56	167
1804.97	83
1805.38	139
1805.79	125
1806.2	123
1806.61	123
1807.02	103
1807.43	103
1807.84	125
1808.25	119
1808.66	73
1809.07	159
1809.48	61
1809.89	157
1810.3	87
1810.71	131
1811.12	103
1811.53	105
1811.94	93
1812.35	129
1812.76	127
1813.17	71
1813.58	151
1813.99	71
1814.4	153
1814.81	103
1815.22	129
1815.63	145
1816.04	119
1816.45	111
1816.86	125
1817.27	117
1817.68	79
1818.09	155
1818.5	77
1818.91	137
1819.32	93
1819.73	139
1820.14	129
1820.55	113
1820.96	105
1821.37	131
1821.78	117
1822.19	95
1822.6	133
1823.01	85
1823.42	145
1823.82	95
1824.23	125
1824.64	135
1825.05	105
1825.46	97
1825.87	147
1826.28	117
1826.69	109
1827.1	135
1827.51	71
1827.91	133
1828.32	97
1828.73	117
1829.14	145
1829.55	99
1829.96	105
1830.37	137
1830.78	105
1831.18	113
1831.59	123
1832	95
1832.41	131
1832.82	119
1833.23	109
1833.64	141
1834.05	91
1834.45	95
1834.86	131
1835.27	117
1835.68	141
1836.09	95
1836.49	109
1836.9	115
1837.31	127
1837.72	109
1838.13	151
1838.53	95
1838.94	113
1839.35	141
1839.76	101
1840.17	133
1840.58	73
1840.98	115
1841.39	107
1841.8	119
1842.21	91
1842.61	147
1843.02	75
1843.43	107
1843.84	125
1844.25	101
1844.65	133
1845.06	47
1845.47	131
1845.88	117
1846.28	140.777
1846.69	93.2399
1847.1	136.434
1847.51	78.2008
1847.91	112.516
1848.32	115.325
1848.73	116.198
1849.14	147.064
1849.54	64.7517
1849.95	155.289
1850.36	122.748
1850.77	129.541
1851.17	100.236
1851.58	149.967
1851.99	91.4367
1852.39	137.211
1852.8	126.02
1853.21	94.3007
1853.62	149.149
1854.02	77.8103
1854.43	126.848
1854.84	112.08
1855.24	134.547
1855.65	93.04
1856.06	138.879
1856.46	88.2767
1856.87	134.194
1857.28	118.599
1857.68	115.044
1858.09	137.244
1858.5	88.1171
1858.9	115.213
1859.31	117.993
1859.72	135.613
1860.12	94.6522
1860.53	140.148
1860.94	99.7041
1861.34	141.696
1861.75	122.495
1862.15	120.061
1862.56	141.456
1862.97	81.6455
1863.37	128.021
1863.78	118.9
1864.19	118.933
1864.59	99.1603
1865	131.606
1865.4	102.748
1865.81	120.512
1866.22	104.184
1866.62	109.572
1867.03	133.549
1867.43	99.3915
1867.84	118.782
1868.25	121.748
1868.65	126.429
1869.06	111.209
1869.46	122.317
1869.87	103.982
1870.28	119.099
1870.68	121.921
1871.09	117.234
1871.49	135.784
1871.9	105.704
1872.3	110.83
1872.71	123.296
1873.12	121.301
1873.52	105.719
1873.93	108.179
1874.33	108.498
1874.74	107.554
1875.14	120.535
1875.55	125.009
1875.95	133.677
1876.36	111.825
1876.76	115.586
1877.17	126.48
1877.57	113.873
1877.98	124.115
1878.38	116.422
1878.79	109.508
1879.19	102.619
1879.6	118.533
1880	122.445
1880.41	127.917
1880.81	106.598
1881.22	92.2229
1881.63	121.05
1882.03	119.429
1882.43	122.281
1882.84	108.199
1883.24	123.086
1883.65	100.988
1884.05	131.509
1884.46	133.439
1884.86	125.597
1885.27	129.129
1885.67	84.9524
1886.08	137.272
1886.48	120.155
1886.89	128.783
1887.29	90.882
1887.69	144.614
1888.1	91.9183
1888.5	151.422
1888.85	133
1889.26	109
1889.67	151
1890.08	65
1890.49	149
1890.9	119
1891.3	153
1891.71	85
1892.12	137
1892.53	77
1892.94	145
1893.35	131
1893.76	101
1894.17	145
1894.58	73
1894.99	119
1895.4	113
1895.81	137
1896.22	87
1896.62	133
1897.03	75
1897.44	151
1897.85	97
1898.26	125
1898.67	139
1899.08	79
1899.49	133
1899.9	109
1900.3	129
1900.71	85
1901.12	121
1901.53	95
1901.94	157
1902.35	109
1902.75	129
1903.16	147
1903.57	105
1903.98	155
1904.39	119
1904.8	119
1905.21	97
1905.61	123
1906.02	97
1906.43	121
1906.84	101
1907.25	127
1907.66	139
1908.06	77
1908.47	127
1908.88	133
1909.29	119
1909.7	107
1910.1	105
1910.51	109
1910.92	135
1911.33	103
1911.73	105
1912.14	129
1912.55	113
1912.96	125
1913.37	125
1913.77	109
1914.18	131
1914.59	111
1915	101
1915.4	145
1915.81	91
1916.22	121
1916.63	139
1917.03	103
1917.44	157
1917.85	121
1918.26	105
1918.66	119
1919.07	101
1919.48	131
1919.89	135
1920.29	91
1920.7	125
1921.11	117
1921.51	117
1921.92	115
1922.33	121
1922.73	105
1923.14	155
1923.55	77
1923.96	129
1924.36	141
1924.77	109
1925.18	123
1925.58	119
1925.99	121
1926.4	115
1926.8	135
1927.21	81
1927.62	153
1928.02	73
1928.43	139
1928.84	109
1929.24	91
1929.65	131
1930.06	101
1930.46	115
1930.87	99
1931.28	141
1931.68	97
1932.09	179
1932.49	57
1932.9	147
1933.31	115
1933.71	107
1934.12	141
1934.53	111
1934.93	119
1935.34	103
1935.74	135
1936.15	115
1936.56	177
1936.96	59
1937.37	155
1937.78	101
1938.18	121
1938.59	115
1938.99	95
1939.4	135
1939.8	81
1940.21	151
1940.62	81
1941.02	163
1941.43	49
1941.83	141
1942.24	91
1942.64	117
1943.05	127
1943.45	99
1943.86	135
1944.27	85
1944.67	127
1945.08	101
1945.48	155
1945.89	51
1946.29	133
1946.7	119
1947.1	131
1947.51	139
1947.91	95
1948.32	117
1948.72	123
1949.13	135
1949.53	97
1949.94	135
1950.34	63
1950.75	141
1951.15	109
1951.56	123
1951.96	113
1952.37	105
1952.77	107
1953.18	127
1953.58	119
1953.99	113
1954.39	125
1954.8	65
1955.2	161
1955.61	121
1956.01	115
1956.42	135
1956.82	95
1957.23	129
1957.63	141
1958.03	105
1958.44	139
1958.84	119
1959.25	71
1959.65	139
1960.06	137
1960.46	97
1960.86	139
1961.27	97
1961.67	119
1962.08	135
1962.48	105
1962.89	129
1963.29	103
1963.69	103
1964.1	121
1964.5	127
1964.91	113
1965.31	123
1965.71	89
1966.12	123
1966.52	127
1966.93	87
1967.33	133
1967.73	111
1968.14	125
1968.54	133
1968.94	133
1969.35	107
1969.75	117
1970.15	105
1970.56	109
1970.96	141
1971.37	85
1971.77	147
1972.17	87
1972.58	135
1972.98	121
1973.38	129
1973.79	111
1974.19	139
1974.59	117
1974.99	133
1975.4	133
1975.8	79
1976.21	141
1976.61	69
1977.01	145
1977.41	99
1977.82	133
1978.22	123
1978.62	127
1979.03	93
1979.43	123
1979.83	123
1980.24	75
1980.64	161
1981.04	83
1981.44	145
1981.85	109
1982.25	157
1982.65	123
1983.05	131
1983.46	113
1983.86	129
1984.26	129
1984.66	67
1985.07	165
1985.47	69
1985.87	143
1986.27	109
1986.68	133
1987.08	119
1987.48	123
1987.88	99
1988.29	115
1988.69	133
1989.09	83
1989.49	165
1989.89	73
1990.3	161
1990.7	99
1991.1	135
1991.5	105
1991.9	121
1992.31	125
1992.71	137
1993.11	143
1993.51	71
1993.91	185
1994.32	83
1994.72	159
1995.12	85
1995.52	157
1995.92	135
1996.32	111
1996.73	103
1997.13	125
1997.53	137
1997.93	99
1998.33	163
1998.73	81
1999.14	143
1999.54	85
1999.94	115
2000.34	105
2000.74	95
2001.14	117
2001.54	131
2001.94	113
2002.35	97
2002.75	137
2003.15	101
2003.55	153
2003.95	107
2004.35	119
2004.75	127
2005.15	115
2005.55	99
2005.96	139
2006.36	113
2006.76	113
2007.16	123
2007.56	101
2007.96	147
2008.36	89
2008.76	121
2009.16	135
2009.56	89
2009.96	133
2010.36	123
2010.76	147
2011.16	117
2011.57	133
2011.97	99
2012.37	115
2012.77	121
2013.17	109
2013.57	157
2013.97	75
2014.37	107
2014.77	115
2015.17	117
2015.57	133
2015.97	95
2016.37	131
2016.77	105
2017.17	145
2017.57	119
2017.97	151
2018.37	103
2018.77	113
2019.17	137
2019.57	93
2019.97	163
2020.37	75
2020.77	123
2021.17	125
2021.57	125
2021.97	115
2022.37	139
2022.77	101
2023.17	93
2023.57	141
2023.97	105
2024.37	165
2024.77	97
2025.17	123
2025.57	131
2025.97	185
2026.37	83
2026.77	155
2027.16	89
2027.56	135
2027.96	139
2028.36	113
2028.76	161
2029.16	73
2029.56	151
2029.96	123
2030.36	149
2030.76	71
2031.16	149
2031.56	77
2031.96	131
2032.35	129
2032.75	95
2033.15	153
2033.55	59
2033.95	129
2034.35	97
2034.75	149
2035.15	93
2035.54	137
2035.94	101
2036.34	145
2036.74	133
2037.14	125
2037.54	173
2037.94	59
2038.34	145
2038.74	95
2039.13	145
2039.53	101
2039.93	127
2040.33	105
2040.73	149
2041.12	107
2041.52	115
2041.92	149
2042.32	77
2042.72	141
2043.12	105
2043.51	137
2043.91	97
2044.31	121
2044.71	97
2045.11	129
2045.51	115
2045.9	107
2046.3	157
2046.7	73
2047.1	151
2047.49	119
2047.89	125
2048.29	113
2048.69	119
2049.09	109
2049.48	131
2049.88	117
2050.28	111
2050.68	165
2051.07	79
2051.47	137
2051.87	119
2052.27	103
2052.67	117
2053.06	93
2053.46	107
2053.86	139
2054.26	89
2054.65	109
2055.05	115
2055.45	95
2055.85	127
2056.24	129
2056.64	103
2057.04	119
2057.43	101
2057.83	109
2058.23	115
2058.62	91
2059.02	121
2059.42	131
2059.82	107
2060.21	131
2060.61	139
2061.01	121
2061.4	141
2061.8	101
2062.2	117
2062.59	143
2062.99	103
2063.39	113
2063.79	129
2064.18	99
2064.58	117
2064.97	143
2065.37	117
2065.77	145
2066.16	95
2066.56	117
2066.96	107
2067.35	97
2067.75	139
2068.15	95
2068.54	133
2068.94	105
2069.34	151
2069.73	79
2070.13	145
2070.52	91
2070.92	143
2071.32	141
2071.71	91
2072.11	141
2072.51	97
2072.9	137
2073.3	105
2073.69	129
2074.09	97
2074.49	161
2074.88	93
2075.28	137
2075.67	127
2076.07	105
2076.47	141
2076.86	85
2077.26	121
2077.65	95
2078.05	155
2078.44	87
2078.84	165
2079.23	79
2079.63	127
2080.03	113
2080.42	87
2080.82	151
2081.21	79
2081.61	147
2082	97
2082.4	155
2082.79	95
2083.19	161
2083.58	85
2083.98	141
2084.37	93
2084.77	87
2085.16	157
2085.56	101
2085.95	137
2086.35	83
2086.74	147
2087.14	95
2087.53	159
2087.93	93
2088.32	133
2088.72	117
2089.11	105
2089.51	151
2089.9	75
2090.3	137
2090.69	103
2091.09	137
2091.48	109
2091.88	141
2092.27	77
2092.67	145
2093.06	123
2093.46	123
2093.85	147
2094.25	99
2094.64	145
2095.03	111
2095.43	147
2095.82	127
2096.22	143
2096.61	81
2097.01	149
2097.4	111
2097.79	117
2098.19	139
2098.58	83
2098.98	133
2099.37	95
2099.76	137
2100.16	111
2100.55	105
2100.95	85
2101.34	117
2101.73	113
2102.13	129
2102.52	147
2102.92	91
2103.31	125
2103.7	105
2104.1	125
2104.49	149
2104.88	109
2105.28	99
2105.67	135
2106.07	129
2106.46	119
2106.85	105
2107.25	113
2107.64	111
2108.03	139
2108.43	113
2108.82	147
2109.21	85
2109.61	99
2110	137
2110.39	101
2110.79	115
2111.18	91
2111.57	101
2111.97	123
2112.36	135
2112.75	101
2113.15	165
2113.54	97
2113.93	121
2114.32	137
2114.72	137
2115.11	119
2115.5	109
2115.9	105
2116.29	113
2116.68	127
2117.08	87
2117.47	177
2117.86	79
2118.25	155
2118.65	105
2119.04	129
2119.43	113
2119.82	109
2120.22	113
2120.61	121
2121	139
2121.39	73
2121.79	169
2122.18	57
2122.57	151
2122.96	101
2123.36	125
2123.75	115
2124.14	89
2124.53	101
2124.93	133
2125.32	135
2125.71	63
2126.1	159
2126.49	87
2126.89	149
2127.28	99
2127.67	119
2128.06	129
2128.45	107
2128.85	111
2129.24	125
2129.63	135
2130.02	77
2130.41	149
2130.81	79
2131.2	153
2131.59	103
2131.98	141
2132.37	113
2132.76	117
2133.16	111
2133.55	107
2133.94	129
2134.33	71
2134.72	157
2135.11	87
2135.5	145
2135.9	89
2136.29	129
2136.68	135
2137.07	119
2137.46	121
2137.85	121
2138.24	135
2138.63	91
2139.03	149
2139.42	95
2139.81	135
2140.2	113
2140.59	129
2140.98	125
2141.37	105
2141.76	115
2142.15	147
2142.55	115
2142.94	109
2143.33	133
2143.72	95
2144.11	141
2144.5	91
2144.89	111
2145.28	129
2145.67	101
2146.06	111
2146.45	127
2146.84	115
2147.23	119
2147.62	133
2148.02	91
2148.4	139
2148.8	95
2149.19	117
2149.58	141
2149.97	97
2150.36	109
2150.75	131
2151.14	121
2151.53	113
2151.92	103
2152.31	95
2152.7	119
2153.09	105
2153.48	105
2153.87	137
2154.26	99
2154.65	113
2155.04	131
2155.43	101
2155.82	143
2156.21	83
2156.6	119
2156.99	125
2157.38	103
2157.77	103
2158.16	141
2158.55	99
2158.94	109
2159.33	145
2159.72	103
2160.11	145
2160.5	83
2160.89	119
2161.28	123
2161.66	125
2162.05	119
2162.44	121
2162.83	99
2163.22	95
2163.61	153
2164	107
2164.39	151
2164.78	63
2165.17	117
2165.56	115
2165.95	125
2166.34	117
2166.73	135
2167.11	77
2167.5	113
2167.89	135
2168.28	101
2168.67	157
2169.06	53
2169.45	133
2169.84	95
2170.23	157
2170.62	87
2171	119
2171.39	91
2171.78	101
2172.17	143
2172.56	81
2172.95	169
2173.34	45
2173.73	149
2174.11	109
2174.5	161
2174.89	119
2175.28	125
2175.67	111
2176.06	119
2176.45	121
2176.83	103
2177.22	183
2177.61	47
2178	153
2178.39	107
2178.78	121
2179.16	93
2179.55	119
2179.94	101
2180.33	125
2180.72	121
2181.1	95
2181.49	141
2181.88	47
2182.27	145
2182.66	117
2183.04	131
2183.43	81
2183.82	113
2184.21	81
2184.6	139
2184.98	123
2185.37	101
2185.76	141
2186.15	53
2186.53	151
2186.92	83
2187.31	119
2187.7	115
2188.08	97
2188.47	111
2188.86	127
2189.25	113
2189.63	105
2190.02	131
2190.41	81
2190.8	143
2191.18	117
2191.57	119
2191.96	135
2192.34	121
2192.73	109
2193.12	135
2193.51	113
2193.89	125
2194.28	109
2194.67	89
2195.06	117
2195.44	135
2195.83	109
2196.22	131
2196.6	109
2196.99	127
2197.38	145
2197.76	95
2198.15	131
2198.54	107
2198.92	111
2199.31	99
2199.7	117
2200.08	77
2200.47	141
2200.86	93
2201.24	135
2201.63	139
2202.02	101
2202.4	127
2202.79	117
2203.18	105
2203.56	105
2203.95	147
2204.34	91
2204.72	165
2205.11	67
2205.49	127
2205.88	127
2206.27	87
2206.65	121
2207.04	89
2207.43	133
2207.81	97
2208.2	149
2208.58	91
2208.97	159
2209.36	85
2209.74	135
2210.13	95
2210.51	101
2210.9	137
2211.29	77
2211.67	131
2212.06	83
2212.44	125
2212.83	97
2213.21	171
2213.6	63
2213.98	151
2214.37	109
2214.76	105
2215.14	151
2215.53	93
2215.91	122.864
2216.3	83.1317
2216.69	146.608
2217.07	103.998
2217.46	151.067
2217.84	73.3634
2218.23	144.74
2218.61	106.475
2219	97.7642
2219.38	124.034
2219.77	82.6136
2220.15	128.253
2220.54	88.9826
2220.92	144.293
2221.31	103.168
2221.69	154.043
2222.08	66.8127
2222.46	123.036
2222.85	101.279
2223.23	113.754
2223.62	131.034
2224	93.9785
2224.39	126.481
2224.77	84.7309
2225.16	123.533
2225.54	98.5693
2225.93	134.024
2226.31	71.6624
2226.7	134.279
2227.08	119.526
2227.47	117.637
2227.85	123.69
2228.23	105.95
2228.62	129.149
2229	110.489
2229.39	127.964
2229.77	107.827
2230.16	138.207
2230.54	73.4618
2230.92	127.782
2231.31	115.939
2231.69	130.19
2232.08	114.885
2232.46	104.671
2232.85	114.393
2233.23	107.119
2233.62	120.473
2234	115.873
2234.38	120.609
2234.77	81.8193
2235.15	126.121
2235.54	114.436
2235.92	121.479
2236.3	115.337
2236.69	108.491
2237.07	117.345
2237.46	109.36
2237.84	122.718
2238.22	103.288
2238.61	115.051
2238.99	101.366
2239.37	108.608
2239.76	122.765
2240.14	127.733
2240.53	121.731
2240.91	93.0271
2241.29	119.43
2241.68	113.218
2242.06	119.367
2242.44	109.584
2242.83	115.13
2243.21	113.101
2243.59	108.742
2243.98	126.271
2244.36	115.501
2244.74	115.333
2245.13	98.0132
2245.51	119.414
2245.89	106.345
2246.28	130.367
2246.66	98.653
2247.04	108.372
2247.43	116.067
2247.81	96.4342
2248.19	110.127
2248.58	119.577
2248.96	126.756
2249.34	91.592
2249.73	133.958
2250.11	101.483
2250.49	126.467
2250.88	96.9085
2251.26	116.954
2251.64	138.987
2252.02	103.435
2252.41	132.591
2252.79	127.077
2252.8	127
2253.18	133
2253.57	119
2253.96	129
2254.35	97
2254.74	135
2255.12	79
2255.51	93
2255.9	131
2256.29	101
2256.67	129
2257.06	125
2257.45	109
2257.84	135
2258.22	113
2258.61	109
2259	133
2259.39	95
2259.77	119
2260.16	133
2260.55	95
2260.94	103
2261.32	123
2261.71	107
2262.1	149
2262.48	129
2262.87	153
2263.26	155.4
2263.65	141.08
2264.03	119
2264.42	149
2264.81	103
2265.19	115
2265.58	147
2265.97	85
2266.35	137
2266.74	93
2267.13	117
2267.51	125
2267.9	101
2268.29	111
2268.67	131
2269.06	109
2269.45	95
2269.83	133
2270.22	99
2270.61	137
2270.99	87
2271.38	125
2271.77	105
2272.15	115
2272.54	133
2272.93	111
2273.31	113
2273.7	113
2274.08	163
2274.47	93
2274.86	163
2275.24	73
2275.63	137
2276.02	117
2276.4	129
2276.79	133
2277.17	99
2277.56	113
2277.95	83
2278.33	135
2278.72	79
2279.1	159
2279.49	69
2279.88	145
2280.26	109
2280.65	107
2281.03	133
2281.42	99
2281.8	113
2282.19	103
2282.58	133
2282.96	103
2283.35	161
2283.73	55
2284.12	155
2284.5	101
2284.89	131
2285.28	127
2285.66	105
2286.05	109
2286.43	97
2286.82	141
2287.2	83
2287.59	153
2287.97	43
2288.36	153
2288.74	105
2289.13	127
2289.51	123
2289.9	111
2290.28	111
2290.67	91
2291.05	133
2291.44	97
2291.82	151
2292.21	57
2292.59	147
2292.98	125
2293.36	119
2293.75	131
2294.13	109
2294.52	119
2294.9	105
2295.29	115
2295.67	121
2296.06	137
2296.44	79
2296.83	141
2297.21	121
2297.6	131
2297.98	129
2298.36	105
2298.75	119
2299.13	129
2299.52	123
2299.9	113
2300.29	115
2300.67	71
2301.06	131
2301.44	119
2301.82	115
2302.21	113
2302.59	103
2302.98	135
2303.36	129
2303.75	117
2304.13	117
2304.51	121
2304.9	103
2305.28	123
2305.67	129
2306.05	117
2306.44	125
2306.82	89
2307.2	137
2307.59	141
2307.97	95
2308.35	145
2308.74	81
2309.12	125
2309.51	123
2309.89	127
2310.27	105
2310.66	127
2311.04	81
2311.42	121
2311.81	145
2312.19	65
2312.57	137
2312.96	85
2313.34	123
2313.73	107
2314.11	123
2314.49	119
2314.88	131
2315.26	101
2315.64	119
2316.03	151
2316.41	83
2316.79	151
2317.18	101
2317.56	141
2317.94	103
2318.32	147
2318.71	95
2319.09	137
2319.47	79
2319.86	133
2320.24	117
2320.62	95
2321.01	161
2321.39	91
2321.77	151
2322.15	93
2322.54	145
2322.92	91
2323.3	137
2323.69	95
2324.07	123
2324.45	131
2324.83	79
2325.22	167
2325.6	61
2325.98	159
2326.36	101
2326.75	147
2327.13	117
2327.51	135
2327.89	89
2328.28	137
2328.66	119
2329.04	89
2329.42	157
2329.81	93
2330.19	155
2330.57	85
2330.95	131
2331.33	125
2331.72	141
2332.1	105
2332.48	137
2332.86	105
2333.24	93
2333.63	163
2334.01	77
2334.39	149
2334.77	95
2335.15	119
2335.54	123
2335.92	125
2336.3	93
2336.68	143
2337.06	119
2337.44	119
2337.83	149
2338.21	83
2338.59	159
2338.97	101
2339.35	145
2339.73	141
2340.12	123
2340.5	103
2340.88	137
2341.26	133
2341.64	119
2342.02	135
2342.41	97
2342.79	131
2343.17	113
2343.55	125
2343.93	145
2344.31	107
2344.69	85
2345.07	119
2345.45	111
2345.84	125
2346.22	131
2346.6	107
2346.98	127
2347.36	117
2347.74	109
2348.12	153
2348.5	117
2348.88	115
2349.26	143
2349.65	125
2350.03	133
2350.41	103
2350.79	111
2351.17	121
2351.55	117
2351.93	101
2352.31	135
2352.69	75
2353.07	113
2353.45	133
2353.83	111
2354.21	141
2354.59	93
2354.98	115
2355.35	121
2355.74	115
2356.12	93
2356.5	159
2356.88	99
2357.26	125
2357.64	129
2358.02	111
2358.4	137
2358.78	87
2359.16	145
2359.54	123
2359.92	145
2360.3	95
2360.68	181
2361.06	91
2361.44	137
2361.82	141
2362.2	99
2362.58	153
2362.96	63
2363.34	127
2363.72	107
2364.1	141
2364.48	97
2364.86	139
2365.24	73
2365.62	129
2366	125
2366.38	123
2366.75	143
2367.14	61
2367.51	135
2367.89	115
2368.27	133
2368.65	91
2369.03	141
2369.41	81
2369.79	133
2370.17	115
2370.55	119
2370.93	149
2371.31	81
2371.69	149
2372.07	123
2372.45	135
2372.83	95
2373.2	165
2373.58	73
2373.96	135
2374.34	115
2374.72	115
2375.1	159
2375.48	73
2375.86	157
2376.24	109
2376.61	141
2376.99	63
2377.37	157
2377.75	87
2378.13	141
2378.51	97
2378.89	93
2379.27	141
2379.65	77
2380.02	151
2380.4	125
2380.78	129
2381.16	99
2381.54	145
2381.92	103
2382.3	157
2382.67	119
2383.05	119
2383.43	137
2383.81	87
2384.19	125
2384.57	119
2384.94	129
2385.32	99
2385.7	127
2386.08	91
2386.46	155
2386.83	115
2387.21	117
2387.59	133
2387.97	85
2388.35	139
2388.73	119
2389.1	123
2389.48	115
2389.86	113
2390.24	109
2390.62	123
2390.99	109
2391.37	115
2391.75	143
2392.13	101
2392.5	135
2392.88	127
2393.26	111
2393.64	141
2394.01	105
2394.39	123
2394.77	129
2395.15	109
2395.52	127
2395.9	131
2396.28	119
2396.66	115
2397.04	143
2397.41	97
2397.79	137
2398.17	89
2398.54	117
2398.92	131
2399.3	109
2399.68	115
2400.05	117
2400.43	115
2400.81	123
2401.18	159
2401.56	109
2401.94	163
2402.32	99
2402.69	143
2403.07	135
2403.45	97
2403.82	127
2404.2	121
2404.58	115
2404.95	121
2405.33	157
2405.71	99
2406.09	173
2406.46	69
2406.84	147
2407.22	111
2407.59	113
2407.97	117
2408.34	113
2408.72	109
2409.1	113
2409.47	157
2409.85	95
2410.23	179
2410.6	63
2410.98	163
2411.36	115
2411.73	121
2412.11	139
2412.49	105
2412.86	131
2413.24	105
2413.61	155
2413.99	89
2414.37	175
2414.74	79
2415.12	135
2415.5	111
2415.87	125
2416.25	137
2416.62	135
2417	125
2417.37	117
2417.75	137
2418.13	105
2418.5	169
2418.88	65
2419.25	161
2419.63	109
2420.01	147
2420.38	141
2420.76	97
2421.13	109
2421.51	111
2421.88	145
2422.26	99
2422.64	165
2423.01	59
2423.39	171
2423.76	105
2424.14	147
2424.51	131
2424.89	101
2425.26	117
2425.64	107
2426.01	145
2426.39	93
2426.76	145
2427.14	63
2427.52	153
2427.89	109
2428.26	129
2428.64	131
2429.02	107
2429.39	119
2429.77	125
2430.14	137
2430.52	121
2430.89	141
2431.26	81
2431.64	153
2432.02	127
2432.39	133
2432.77	135
2433.14	107
2433.51	135
2433.89	147
2434.26	127
2434.64	133
2435.01	137
2435.39	93
2435.76	151
2436.14	139
2436.51	137
2436.89	135
2437.26	123
2437.63	151
2438.01	189
2438.38	137
2438.76	139
2439.13	133
2439.51	121
2439.88	169
2440.26	155
2440.63	119
2441	125
2441.38	113
2441.75	137
2442.13	147
2442.5	125
2442.87	171
2443.25	131
2443.62	131
2444	155
2444.37	171
2444.74	157
2445.12	167
2445.49	123
2445.87	149
2446.24	165
2446.61	119
2446.99	171
2447.36	95
2447.73	133
2448.11	157
2448.48	173
2448.86	119
2449.23	161
2449.6	131
2449.98	137
2450.35	157
2450.72	91
2451.1	191
2451.47	107
2451.84	177
2452.22	161
2452.59	153
2452.97	119
2453.34	141
2453.71	121
2454.08	139
2454.46	145
2454.83	103
2455.2	191
2455.58	105
2455.95	161
2456.32	121
2456.7	177
2457.07	113
2457.44	145
2457.82	101
2458.19	161
2458.56	149
2458.93	91
2459.31	189
2459.68	89
2460.05	153
2460.43	113
2460.8	147
2461.17	115
2461.54	147
2461.92	119
2462.29	155
2462.66	149
2463.03	95
2463.41	157
2463.78	101
2464.15	167
2464.52	115
2464.9	135
2465.27	143
2465.64	143
2466.01	119
2466.39	163
2466.76	121
2467.13	119
2467.5	165
2467.88	105
2468.25	149
2468.62	127
2468.99	163
2469.37	141
2469.74	111
2470.11	73
2470.48	143
2470.85	115
2471.22	113
2471.6	165
2471.97	105
2472.34	159
2472.71	117
2473.08	137
2473.46	129
2473.83	119
2474.2	101
2474.57	153
2474.94	153
2475.32	139
2475.69	145
2476.06	115
2476.43	145
2476.8	135
2477.17	117
2477.55	149
2477.92	129
2478.29	99
2478.66	125
2479.03	137
2479.4	137
2479.77	129
2480.15	103
2480.52	115
2480.89	133
2481.26	131
2481.63	157
2482	97
2482.37	121
2482.74	159
2483.12	123
2483.49	113
2483.86	115
2484.23	97
2484.6	147
2484.97	149
2485.34	121
2485.71	155
2486.08	89
2486.46	137
2486.83	147
2487.2	133
2487.57	145
2487.94	103
2488.31	119
2488.68	123
2489.05	133
2489.42	95
2489.79	169
2490.16	83
2490.53	137
2490.9	105
2491.27	111
2491.64	135
2492.01	109
2492.38	123
2492.76	127
2493.13	151
2493.5	97
2493.87	161
2494.24	83
2494.61	137
2494.98	149
2495.35	121
2495.72	131
2496.09	97
2496.46	159
2496.83	107
2497.2	155
2497.57	93
2497.94	173
2498.31	83
2498.68	147
2499.05	117
2499.42	121
2499.79	137
2500.16	83
2500.53	131
2500.9	133
2501.27	145
2501.64	79
2502.01	155
2502.38	79
2502.75	145
2503.12	127
2503.49	133
2503.86	149
2504.23	83
2504.6	145
2504.97	121
2505.34	149
2505.7	63
2506.07	163
2506.44	93
2506.81	153
2507.18	105
2507.55	129
2507.92	147
2508.29	73
2508.66	149
2509.03	109
2509.4	137
2509.77	97
2510.14	133
2510.5	97
2510.88	157
2511.24	115
2511.61	119
2511.98	143
2512.35	111
2512.72	133
2513.09	123
2513.46	129
2513.83	95
2514.2	131
2514.56	87
2514.93	153
2515.3	103
2515.67	131
2516.04	125
2516.41	125
2516.78	113
2517.15	141
2517.51	145
2517.88	125
2518.25	139
2518.62	99
2518.99	141
2519.36	113
2519.73	117
2520.09	159
2520.46	109
2520.83	137
2521.2	133
2521.57	105
2521.94	125
2522.3	109
2522.67	125
2523.04	137
2523.41	111
2523.78	121
2524.15	151
2524.51	113
2524.88	119
2525.25	115
2525.62	85
2525.98	155
2526.35	85
2526.72	161
2527.09	133
2527.46	113
2527.83	127
2528.19	145
2528.56	101
2528.93	97
2529.3	137
2529.66	81
2530.03	181
2530.4	71
2530.77	135
2531.13	119
2531.5	101
2531.87	119
2532.24	133
2532.61	99
2532.97	107
2533.34	143
2533.71	99
2534.07	147
2534.44	75
2534.81	137
2535.18	107
2535.54	147
2535.91	111
2536.28	141
2536.65	107
2537.01	101
2537.38	139
2537.75	85
2538.11	171
2538.48	65
2538.85	137
2539.22	103
2539.58	133
2539.95	129
2540.32	109
2540.68	95
2541.05	117
2541.42	141
2541.78	91
2542.15	175
2542.52	71
2542.89	149
2543.25	133
2543.62	159
2543.99	107
2544.35	115
2544.72	105
2545.08	115
2545.45	131
2545.82	85
2546.19	149
2546.55	61
2546.92	163
2547.28	115
2547.65	137
2548.02	107
2548.38	125
2548.75	105
2549.12	143
2549.48	121
2549.85	105
2550.21	139
2550.58	85
2550.95	151
2551.31	109
2551.68	145
2552.05	105
2552.41	105
2552.78	99
2553.14	157
2553.51	123
2553.88	91
2554.24	137
2554.61	91
2554.97	161
2555.34	109
2555.71	123
2556.07	103
2556.44	113
2556.8	117
2557.17	133
2557.53	107
2557.9	125
2558.27	133
2558.63	87
2559	143
2559.36	125
2559.73	131
2560.09	129
2560.46	109
2560.82	127
2561.19	139
2561.55	93
2561.92	141
2562.29	119
2562.65	109
2563.02	137
2563.38	131
2563.75	119
2564.11	121
2564.48	93
2564.84	115
2565.21	129
2565.57	105.009
2565.94	130.993
2566.3	129.772
2566.67	111.848
2567.03	132.54
2567.4	134.215
2567.76	97.448
2568.13	122.755
2568.49	85.9626
2568.86	139.928
2569.22	134.832
2569.59	103.138
2569.95	129.025
2570.32	114.527
2570.68	117.6
2571.05	134.744
2571.41	147.1
2571.78	90.9457
2572.14	154.532
2572.51	90.3763
2572.87	131.502
2573.23	116.265
2573.6	92.3345
2573.96	136.327
2574.33	99.4957
2574.69	124.273
2575.06	106.147
2575.42	146.581
2575.79	87.7141
2576.15	149.472
2576.51	96.2122
2576.88	120.23
2577.24	125.842
2577.61	88.4397
2577.97	149.582
2578.34	104.476
2578.7	132.093
2579.06	119.379
2579.43	131.448
2579.79	95.0328
2580.16	148.757
2580.52	114.123
2580.88	137.268
2581.25	123.473
2581.61	105.724
2581.98	128.544
2582.34	116.513
2582.7	133.472
2583.07	125.006
2583.43	142.537
2583.8	89.7184
2584.16	145.349
2584.52	114.18
2584.89	145.978
2585.25	120.465
2585.61	111.68
2585.98	141.278
2586.34	120.612
2586.7	133.01
2587.07	102.895
2587.43	140.796
2587.8	98.6071
2588.16	137.77
2588.52	115.765
2588.88	140.367
2589.25	125.822
2589.61	105.506
2589.97	137.438
2590.34	122.935
2590.7	148.616
2591.06	115.985
2591.43	169.249
2591.79	109.74
2592.15	142.175
2592.52	115.511
2592.88	127.457
2593.24	136.338
2593.61	102.498
2593.97	126.949
2594.33	132.289
2594.7	145.571
2595.06	92.9681
2595.42	171.175
2595.78	88.248
2596.15	167.727
2596.51	117.297
2596.87	142.658
2597.24	136.772
2597.6	116.328
2597.96	124.701
2598.32	129.861
2598.69	139.493
2599.05	82.9758
2599.41	160.74
2599.78	114.569
2600.14	139.145
2600.5	141.92
2600.86	128.791
2600.95	125
2601.31	141
2601.68	101
2602.05	141
2602.42	107
2602.78	145
2603.15	81
2603.52	167
2603.89	103
2604.25	185
2604.62	131
2604.99	135
2605.35	155
2605.72	103
2606.09	141
2606.46	141
2606.82	147
2607.19	93
2607.56	161
2607.92	117
2608.29	175
2608.66	117
2609.03	133
2609.39	143
2609.76	115
2610.13	153
2610.49	143
2610.86	153
2611.23	99
2611.59	173
2611.96	97
2612.33	171
2612.69	115
2613.06	153
2613.43	153
2613.79	123
2614.16	157
2614.53	147
2614.89	167
2615.26	117
2615.62	169
2615.99	113
2616.36	173
2616.72	123
2617.09	161
2617.46	167
2617.82	129
2618.19	137
2618.56	165
2618.92	147
2619.29	155
2619.65	157
2620.02	131
2620.39	169
2620.75	113
2621.12	143
2621.48	161
2621.85	133
2622.22	147
2622.58	175
2622.95	147
2623.31	175
2623.68	147
2624.04	175
2624.41	177
2624.78	149
2625.14	147
2625.51	177
2625.87	135
2626.24	147
2626.6	175
2626.97	157
2627.34	185
2627.7	141
2628.07	183
2628.43	171
2628.8	175
2629.16	149
2629.53	179
2629.9	167
2630.26	157
2630.63	167
2630.99	139
2631.36	199
2631.72	133
2632.09	185
2632.45	163
2632.82	195
2633.18	165
2633.55	223
2633.91	189
2634.28	187
2634.64	229
2635.01	163
2635.37	237
2635.74	147
2636.1	211
2636.47	179
2636.83	201
2637.2	163
2637.56	223
2637.93	169
2638.29	199
2638.66	213
2639.02	171
2639.39	237
2639.75	157
2640.12	221
2640.48	219
2640.84	229
2641.21	209
2641.57	241
2641.94	175
2642.3	223
2642.67	237
2643.03	213
2643.4	263
2643.76	185
2644.13	249
2644.49	223
2644.85	285
2645.22	239
2645.58	275
2645.95	241
2646.31	251
2646.68	275
2647.04	255
2647.4	277
2647.77	205
2648.13	291
2648.5	235
2648.86	285
2649.22	249
2649.59	275
2649.95	233
2650.32	301
2650.68	253
2651.04	277
2651.41	337
2651.77	231
2652.14	319
2652.5	277
2652.86	321
2653.23	293
2653.59	327
2653.95	283
2654.32	345
2654.68	333
2655.05	333
2655.41	327
2655.77	315
2656.14	353
2656.5	339
2656.86	349
2657.23	313
2657.59	365
2657.95	353
2658.32	377
2658.68	363
2659.04	375
2659.41	397
2659.77	359
2660.13	419
2660.5	395
2660.86	391
2661.22	391
2661.59	371
2661.95	429
2662.31	423
2662.68	439
2663.04	431
2663.4	447
2663.76	443
2664.13	459
2664.49	427
2664.85	465
2665.22	463
2665.58	421
2665.94	447
2666.3	495
2666.67	447
2667.03	457
2667.39	467
2667.76	457
2668.12	507
2668.48	499
2668.84	497
2669.21	483
2669.57	469
2669.93	499
2670.29	497
2670.66	453
2671.02	507
2671.38	503
2671.74	505
2672.11	531
2672.47	519
2672.83	499
2673.19	509
2673.56	473
2673.92	513
2674.28	547
2674.64	461
2675	535
2675.37	517
2675.73	495
2676.09	545
2676.45	497
2676.81	451
2677.18	511
2677.54	457
2677.9	493
2678.26	471
2678.62	457
2678.99	499
2679.35	465
2679.71	467
2680.07	449
2680.43	497
2680.8	431
2681.16	457
2681.52	407
2681.88	485
2682.24	437
2682.6	431
2682.97	431
2683.33	373
2683.69	425
2684.05	385
2684.41	403
2684.77	411
2685.13	427
2685.5	359
2685.86	423
2686.22	413
2686.58	395
2686.94	403
2687.3	363
2687.66	375
2688.03	341
2688.39	379
2688.75	299
2689.11	373
2689.47	301
2689.83	359
2690.19	333
2690.55	347
2690.91	345
2691.28	301
2691.64	331
2692	295
2692.36	315
2692.72	289
2693.08	349
2693.44	229
2693.8	319
2694.16	275
2694.52	295
2694.88	309
2695.24	275
2695.61	285
2695.97	261
2696.33	309
2696.69	247
2697.05	317
2697.41	199
2697.77	277
2698.13	259
2698.49	277
2698.85	271
2699.21	247
2699.57	245
2699.93	249
2700.29	235
2700.65	229
2701.01	287
2701.37	187
2701.73	277
2702.09	211
2702.45	215
2702.81	213
2703.18	217
2703.53	217
2703.89	221
2704.25	221
2704.62	229
2704.98	225
2705.33	169
2705.69	235
2706.06	201
2706.42	207
2706.78	201
2707.13	181
2707.49	185
2707.85	193
2708.22	195
2708.57	171
2708.93	207
2709.29	137
2709.65	193
2710.01	197
2710.37	189
2710.73	177
2711.09	133
2711.45	173
2711.81	183
2712.17	179
2712.53	183
2712.89	167
2713.25	153
2713.61	181
2713.97	205
2714.33	145
2714.69	195
2715.05	149
2715.41	173
2715.76	173
2716.12	147
2716.48	177
2716.84	175
2717.2	196.422
2717.56	182.807
2717.92	184.743
2718.28	187.991
2718.64	185.181
2719	192.229
2719.35	194.147
2719.71	211
2720.07	194.333
2720.43	211
2720.79	161
2721.15	147
2721.51	145
2721.87	157
2722.23	117
2722.59	181
2722.94	109
2723.3	157
2723.66	175
2724.02	137
2724.38	175
2724.74	117
2725.1	159
2725.46	123
2725.81	169
2726.17	121
2726.53	199
2726.89	97
2727.25	181
2727.61	151
2727.96	109
2728.32	171
2728.68	87
2729.04	159
2729.4	123
2729.75	173
2730.11	117
2730.47	195
2730.83	105
2731.19	171
2731.55	175
2731.91	129
2732.26	173
2732.62	107
2732.98	163
2733.34	121
2733.69	181
2734.05	119
2734.41	193
2734.77	123
2735.13	167
2735.48	133
2735.84	123
2736.2	157
2736.56	121
2736.91	155
2737.27	119
2737.63	181
2737.99	103
2738.35	175
2738.7	83
2739.06	167
2739.42	121
2739.78	111
2740.13	155
2740.49	99
2740.85	151
2741.21	131
2741.56	157
2741.92	129
2742.28	139
2742.64	87
2742.99	157
2743.35	143
2743.71	107
2744.06	161
2744.42	101
2744.78	155
2745.14	115
2745.49	139
2745.85	143
2746.21	129
2746.57	89
2746.92	145
2747.28	135
2747.64	109
2747.99	153
2748.35	109
2748.71	139
2749.06	121
2749.42	141
2749.78	121
2750.13	131
2750.49	93
2750.85	143
2751.2	113
2751.56	139
2751.92	141
2752.27	97
2752.63	145
2752.99	111
2753.34	129
2753.7	125
2754.06	125
2754.41	95
2754.77	147
2755.13	141
2755.48	125
2755.84	147
2756.2	87
2756.55	149
2756.91	145
2757.26	115
2757.62	141
2757.98	107
2758.33	117
2758.69	127
2759.04	139
2759.4	133
2759.76	125
2760.11	119
2760.47	135
2760.83	171
2761.18	103
2761.54	155
2761.89	105
2762.25	131
2762.61	141
2762.96	115
2763.32	127
2763.67	113
2764.03	125
2764.38	131
2764.74	147
2765.1	109
2765.45	181
2765.81	91
2766.16	123
2766.52	127
2766.88	143
2767.23	127
2767.59	107
2767.94	123
2768.3	127
2768.65	153
2769.01	91
2769.36	165
2769.72	71
2770.07	151
2770.43	115
2770.78	157
2771.14	117
2771.49	131
2771.85	107
2772.21	127
2772.56	159
2772.92	73
2773.27	177
2773.63	69
2773.98	141
2774.34	113
2774.69	131
2775.05	109
2775.4	119
2775.76	129
2776.11	121
2776.47	159
2776.82	59
2777.18	185
2777.53	91
2777.89	177
2778.24	107
2778.59	141
2778.95	127
2779.3	107
2779.66	115
2780.01	155
2780.37	141
2780.72	87
2781.08	179
2781.43	69
2781.79	157
2782.14	97
2782.49	157
2782.85	137
2783.2	131
2783.56	109
2783.91	143
2784.27	137
2784.62	75
2784.98	153
2785.33	75
2785.68	155
2786.04	101
2786.39	139
2786.75	143
2787.1	119
2787.46	113
2787.81	129
2788.16	125
2788.52	121
2788.87	143
2789.22	85
2789.58	137
2789.93	101
2790.29	133
2790.64	135
2790.99	115
2791.35	103
2791.7	147
2792.06	129
2792.41	127
2792.76	145
2793.12	117
2793.47	127
2793.82	121
2794.18	117
2794.53	149
2794.88	115
2795.24	117
2795.59	157
2795.95	119
2796.3	143
2796.65	109
2797.01	119
2797.36	125
2797.71	129
2798.07	119
2798.42	151
2798.77	111
2799.13	113
2799.48	135
2799.83	135
2800.19	133
2800.54	91
2800.89	113
2801.24	137
2801.6	157
2801.95	107
2802.3	159
2802.66	91
2803.01	115
2803.36	131
2803.72	129
2804.07	137
2804.42	95
2804.77	147
2805.13	135
2805.48	145
2805.83	97
2806.19	141
2806.54	93
2806.89	149
2807.24	127
2807.6	105
2807.95	149
2808.3	71
2808.65	129
2809.01	109
2809.36	133
2809.71	85
2810.06	173
2810.42	99
2810.77	141
2811.12	119
2811.47	123
2811.83	161
2812.18	67
2812.53	133
2812.88	101
2813.24	143
2813.59	95
2813.94	153
2814.29	83
2814.64	147
2815	125
2815.35	123
2815.7	147
2816.05	91
2816.4	139
2816.76	113
2817.11	153
2817.46	79
2817.81	159
2818.16	81
2818.52	137
2818.87	107
2819.22	107
2819.57	151
2819.92	75
2820.28	129
2820.63	115
2820.98	133
2821.33	91
2821.68	159
2822.03	85
2822.39	155
2822.74	125
2823.09	125
2823.44	133
2823.79	85
2824.14	151
2824.49	127
2824.85	129
2825.2	87
2825.55	131
2825.9	87
2826.25	143
2826.6	95
2826.95	133
2827.31	135
2827.66	97
2828.01	133
2828.36	107
2828.71	139
2829.06	85
2829.41	133
2829.76	95
2830.11	129
2830.46	115
2830.82	121
2831.17	135
2831.52	95
2831.87	123
2832.22	121
2832.57	139
2832.92	105
2833.27	127
2833.62	99
2833.97	139
2834.32	109
2834.68	105
2835.03	149
2835.38	97
2835.73	123
2836.08	139
2836.43	141
2836.78	121
2837.13	119
2837.48	121
2837.83	133
2838.18	93
2838.53	115
2838.88	131
2839.23	109
2839.58	125
2839.93	125
2840.28	117
2840.63	125
2840.98	87
2841.33	105
2841.68	123
2842.03	101
2842.38	123
2842.73	127
2843.08	115
2843.43	109
2843.78	145
2844.13	111
2844.48	147
2844.83	111
2845.18	127
2845.53	125
2845.88	115
2846.23	139
2846.58	135
2846.93	101
2847.28	97
2847.63	137
2847.98	95
2848.33	157
2848.68	89
2849.03	135
2849.38	117
2849.73	115
2850.08	111
2850.43	151
2850.78	83
2851.13	95
2851.48	133
2851.83	99
2852.18	171
2852.53	59
2852.88	151
2853.23	101
2853.57	135
2853.92	127
2854.27	139
2854.62	107
2854.97	111
2855.32	149
2855.67	95
2856.02	163
2856.37	59
2856.72	143
2857.07	119
2857.42	149
2857.76	115
2858.11	119
2858.46	101
2858.81	121
2859.16	121
2859.51	117
2859.86	151
2860.21	69
2860.56	145
2860.91	103
2861.25	131
2861.6	109
2861.95	133
2862.3	95
2862.65	137
2863	127
2863.35	107
2863.69	161
2864.04	49
2864.39	131
2864.74	95
2865.09	139
2865.44	101
2865.78	135
2866.13	107
2866.48	137
2866.83	133
2867.18	99
2867.53	155
2867.88	59
2868.22	131
2868.57	111
2868.92	133
2869.27	113
2869.62	135
2869.96	109
2870.31	137
2870.66	117
2871.01	109
2871.36	139
2871.7	79
2872.05	125
2872.4	115
2872.75	123
2873.1	105
2873.44	131
2873.79	109
2874.14	141
2874.49	101
2874.84	115
2875.18	135
2875.53	69
2875.88	145
2876.23	121
2876.57	121
2876.92	121
2877.27	101
2877.62	89
2877.97	135
2878.31	97
2878.66	115
2879.01	137
2879.36	69
2879.7	143
2880.05	111
2880.4	107
2880.74	115
2881.09	95
2881.44	121
2881.79	145
2882.13	115
2882.48	107
2882.83	119
2883.18	103
2883.52	143
2883.87	133
2884.22	97
2884.56	131
2884.91	95
2885.26	131
2885.61	133
2885.95	95
2886.3	129
2886.65	119
2886.99	117
2887.34	117
2887.69	127
2888.03	103
2888.38	127
2888.73	95
2889.07	115
2889.42	129
2889.77	97
2890.11	127
2890.46	113
2890.81	103
2891.15	117
2891.5	129
2891.85	89
2892.19	145
2892.54	61
2892.89	133
2893.23	125
2893.58	97
2893.93	129
2894.27	109
2894.62	131
2894.96	115
2895.31	135
2895.66	85
2896	161
2896.35	85.16
2896.7	142.595
2897.04	134.353
2897.39	90.0614
2897.73	170.543
2898.08	97.0494
2898.43	124.279
2898.77	90.0059
2899.12	149.553
2899.46	100.29
2899.81	152.884
2900.16	75.4426
2900.5	127.131
2900.85	133.305
2901.19	88.5334
2901.54	136.396
2901.88	86.9771
2902.23	120.759
2902.58	105.794
2902.92	137.865
2903.27	94.3444
2903.61	131.059
2903.96	71.7938
2904.31	139.127
2904.65	107.604
2905	107.386
2905.34	140.689
2905.69	101.252
2906.03	145.039
2906.38	90.5855
2906.72	136.602
2907.07	105.895
2907.42	135.769
2907.76	77.6723
2908.11	142.97
2908.45	110.489
2908.8	93.9867
2909.14	145.104
2909.49	75.46
2909.83	150.593
2910.18	85.5747
2910.52	146.802
2910.87	102.583
2911.21	131.168
2911.56	75.5846
2911.9	132.457
2912.25	106.568
2912.59	98.2139
2912.94	144.679
2913.28	85.0592
2913.63	131.113
2913.97	91.1715
2914.32	133.38
2914.66	113.772
2915.01	130.659
2915.35	105.122
2915.7	131.406
2916.04	129.512
2916.39	104.145
2916.73	138.785
2917.08	92.6706
2917.42	127.679
2917.77	103.855
2918.11	131.156
2918.46	122.921
2918.8	119.779
2919.15	92.1397
2919.49	121.933
2919.83	118.43
2920.18	104.849
2920.52	116.938
2920.87	97.3665
2921.21	111.816
2921.56	124.181
2921.9	122.687
2922.24	119.025
2922.59	110.227
2922.93	101.146
2923.28	121.826
2923.62	125.345
2923.97	111.496
2924.31	121.025
2924.65	115.854
2925	109.256
2925.34	130.296
2925.69	110.013
2926.03	131.863
2926.38	124.64
2926.72	108.341
2927.06	107.751
2927.41	122.102
2927.75	118.481
2928.09	123.508
2928.44	130.017
2928.78	90.825
2929.13	134.35
2929.47	95.9287
2929.81	123.081
2930.16	118.27
2930.5	105.953
2930.79	101
2931.14	115
2931.49	115
2931.84	101
2932.19	141
2932.54	101
2932.88	135
2933.23	119
2933.58	103
2933.93	129
2934.28	93
2934.63	95
2934.97	127
2935.32	111
2935.67	133
2936.02	115
2936.37	103
2936.71	129
2937.06	105
2937.41	103
2937.76	139
2938.11	103
2938.46	79
2938.8	145
2939.15	119
2939.5	117
2939.85	101
2940.19	105
2940.54	119
2940.89	115
2941.24	103
2941.59	129
2941.93	105
2942.28	109
2942.63	137
2942.98	131
2943.32	143
2943.67	111
2944.02	119
2944.37	135
2944.72	125
2945.06	87
2945.41	159
2945.76	81
2946.11	119
2946.45	119
2946.8	105
2947.15	135
2947.49	97
2947.84	115
2948.19	99
2948.54	153
2948.88	103
2949.23	159
2949.58	95
2949.93	111
2950.27	129
2950.62	125
2950.97	149
2951.31	65
2951.66	127
2952.01	119
2952.35	143
2952.7	117
2953.05	151
2953.4	85
2953.74	119
2954.09	119
2954.44	107
2954.78	149
2955.13	93
2955.48	117
2955.82	109
2956.17	137
2956.52	87
2956.86	167
2957.21	79
2957.56	139
2957.9	123
2958.25	109
2958.6	139
2958.94	63
2959.29	135
2959.64	99
2959.98	151
2960.33	87
2960.68	175
2961.02	67
2961.37	125
2961.72	127
2962.06	103
2962.41	139
2962.76	63
2963.1	139
2963.45	107
2963.79	153
2964.14	79
2964.49	141
2964.83	73
2965.18	153
2965.52	109
2965.87	115
2966.22	131
2966.56	85
2966.91	119
2967.25	119
2967.6	139
2967.95	105
2968.29	157
2968.64	93
2968.98	143
2969.33	103
2969.68	127
2970.02	135
2970.37	85
2970.71	119
2971.06	113
2971.4	135
2971.75	97
2972.1	137
2972.44	77
2972.79	145
2973.13	113
2973.48	125
2973.82	135
2974.17	87
2974.51	141
2974.86	121
2975.21	133
2975.55	85
2975.9	131
2976.24	87
2976.59	143
2976.93	105
2977.28	109
2977.62	139
2977.97	97
2978.31	119
2978.66	119
2979	105
2979.35	99
2979.69	109
2980.04	109
2980.38	141
2980.73	91
2981.07	123
2981.42	145
2981.76	103
2982.11	121
2982.45	133
2982.8	119
2983.14	133
2983.49	101
2983.83	119
2984.18	133
2984.52	95
2984.87	129
2985.21	147
2985.56	103
2985.9	119
2986.25	125
2986.59	111
2986.94	135
2987.28	107
2987.62	127
2987.97	113
2988.31	113
2988.66	113
2989	141
2989.35	113
2989.69	101
2990.03	131
2990.38	105
2990.72	149
2991.07	83
2991.41	133
2991.76	111
2992.1	105
2992.44	103
2992.79	127
2993.13	107
2993.48	99
2993.82	137
2994.17	105
2994.51	135.5
2994.85	139.5
2995.2	201
2995.54	119
2995.89	127
2996.23	105
2996.57	151
2996.92	105
2997.26	117
2997.6	141
2997.95	109
2998.29	163
2998.64	79
2998.98	137
2999.32	126.333
2999.67	114.111
