#Acq. time (s)=	30
#Accumulations=	1
#Range (cm-¹)=	1050...3000 (30 s) 
#Windows=	6
#Auto scanning=	Off
#Autofocus=	Off
#AutoExposure=	Off
#Spike filter=	Off
#Delay time (s)=	0
#Binning=	1
#Readout mode=	Signal
#DeNoise=	Off
#ICS correction=	Off
#Dark correction=	Off
#Inst. Process=	Off
#Detector Gain=	High Sensitivity
#Detector ADC=	45 kHz       
#Detector temperature (°C)=	-60.1
#Instrument=	LabRAM
#Detector=	Syncerity
#Objective=	x50LWD
#Grating=	1800
#Filter=	25%
#Laser (nm)=	532
#Hole=	100
#E-Cal_Neon=	0
#StageXY=	Marzhauser
#StageZ=	Marzhauser
#X (µm)=	0
#Y (µm)=	0
#Z (µm)=	-1678.85
#Spectral res.(cm-¹)=	1.9
#Full time(mm:ss)=	3:09
#AC=	Not calibrated
#Project=	
#Sample=	
#Site=	
#Title=	Spot 2 300K
#Remark=	
#Date=	19.02.2026 14:28
#Acquired=	19.02.2026 14:28:09
#Edit:Spike=	19.02.2026 14:30:18
#Edit:Spike=	19.02.2026 14:30:25
#Edit:Spike=	19.02.2026 14:30:27
#Edit:Spike=	19.02.2026 14:30:28
#Edit:Spike=	19.02.2026 14:30:51
#AxisType[0]=Intens
#AxisUnit[0]=Cnt
#AxisType[1]=Spectr
#AxisUnit[1]=1/cm
1050.13	137
1050.59	181
1051.05	79
1051.51	161
1051.97	111
1052.44	183
1052.9	109
1053.36	159
1053.82	111
1054.28	169
1054.74	167
1055.2	131
1055.67	187
1056.13	75
1056.59	179
1057.05	127
1057.51	155
1057.97	141
1058.43	159
1058.89	131
1059.36	141
1059.82	141
1060.28	119
1060.74	153
1061.2	117
1061.66	171
1062.12	133
1062.58	135
1063.04	149
1063.5	129
1063.96	133
1064.43	149
1064.89	143
1065.35	157
1065.81	123
1066.27	111
1066.73	149
1067.19	145
1067.65	127
1068.11	135
1068.57	113
1069.03	135
1069.49	157
1069.95	125
1070.41	167
1070.87	91
1071.33	157
1071.79	137
1072.25	145
1072.71	129
1073.17	123
1073.63	123
1074.09	141
1074.55	161
1075.01	97
1075.47	185
1075.93	87
1076.39	189
1076.85	113
1077.31	169
1077.77	137
1078.23	115
1078.69	149
1079.15	141
1079.61	153
1080.07	73
1080.53	201
1080.99	75
1081.45	189
1081.91	99
1082.37	143
1082.83	161
1083.29	113
1083.75	155
1084.21	141
1084.66	171
1085.12	123
1085.58	175
1086.04	111
1086.5	165
1086.96	135
1087.42	129
1087.88	165
1088.34	117
1088.8	155
1089.25	141
1089.71	131
1090.17	167
1090.63	119
1091.09	145
1091.55	153
1092.01	125
1092.47	135
1092.92	133
1093.38	121
1093.84	129
1094.3	161
1094.76	107
1095.22	193
1095.68	115
1096.13	155
1096.59	157
1097.05	119
1097.51	159
1097.97	135
1098.43	161
1098.88	131
1099.34	165
1099.8	137
1100.26	181
1100.72	89
1101.17	151
1101.63	135
1102.09	121
1102.55	165
1103.01	97
1103.46	131
1103.92	105
1104.38	161
1104.84	111
1105.29	169
1105.75	103
1106.21	177
1106.67	125
1107.12	141
1107.58	157
1108.04	89
1108.5	167
1108.95	99
1109.41	169
1109.87	125
1110.33	131
1110.78	101
1111.24	171
1111.7	133
1112.16	121
1112.61	171
1113.07	111
1113.53	149
1113.98	131
1114.44	143
1114.9	175
1115.35	113
1115.81	165
1116.27	149
1116.72	163
1117.18	147
1117.64	123
1118.1	111
1118.55	139
1119.01	157
1119.47	135
1119.92	175
1120.38	107
1120.84	123
1121.29	149
1121.75	133
1122.2	185
1122.66	97
1123.12	155
1123.57	151
1124.03	169
1124.49	137
1124.94	157
1125.4	141
1125.86	151
1126.31	163
1126.77	115
1127.22	203
1127.68	87
1128.14	163
1128.59	143
1129.05	183
1129.5	159
1129.96	145
1130.41	123
1130.87	135
1131.33	163
1131.78	147
1132.24	177
1132.69	75
1133.15	189
1133.61	139
1134.06	163
1134.52	141
1134.97	105
1135.43	145
1135.88	133
1136.34	145
1136.79	121
1137.25	171
1137.7	81
1138.16	175
1138.61	141
1139.07	139
1139.52	149
1139.98	105
1140.43	163
1140.89	155
1141.34	153
1141.8	143
1142.25	131
1142.71	127
1143.16	155
1143.62	141
1144.07	131
1144.53	147
1144.98	113
1145.44	145
1145.89	149
1146.35	127
1146.8	169
1147.26	107
1147.71	131
1148.16	159
1148.62	141
1149.07	149
1149.53	129
1149.98	149
1150.44	137
1150.89	171
1151.35	103
1151.8	179
1152.25	107
1152.71	149
1153.16	133
1153.62	145
1154.07	171
1154.52	93
1154.98	155
1155.43	135
1155.89	165
1156.34	105
1156.79	173
1157.25	111
1157.7	191
1158.16	121
1158.61	119
1159.06	147
1159.52	95
1159.97	155
1160.42	131
1160.88	155
1161.33	99
1161.78	161
1162.24	115
1162.69	161
1163.14	143
1163.6	167
1164.05	149
1164.5	113
1164.96	171
1165.41	141
1165.86	135
1166.32	135
1166.77	139
1167.22	127
1167.68	167
1168.13	143
1168.58	143
1169.04	135
1169.49	119
1169.94	155
1170.39	159
1170.85	135
1171.3	145
1171.75	105
1172.2	149
1172.66	135
1173.11	117
1173.56	163
1174.01	87
1174.47	159
1174.92	113
1175.37	159
1175.82	115
1176.28	141
1176.73	119
1177.18	149
1177.63	153
1178.09	107
1178.54	213
1178.99	107
1179.44	165
1179.89	113
1180.35	149
1180.8	141
1181.25	149
1181.7	125
1182.15	131
1182.61	147
1183.06	91
1183.51	177
1183.96	71
1184.41	171
1184.87	111
1185.32	127
1185.77	149
1186.22	117
1186.67	129
1187.12	139
1187.58	143
1188.03	121
1188.48	169
1188.93	121
1189.38	159
1189.83	113
1190.28	161
1190.73	163
1191.19	115
1191.64	143
1192.09	151
1192.54	151
1192.99	153
1193.44	131
1193.89	139
1194.34	161
1194.8	109
1195.25	117
1195.7	149
1196.15	121
1196.6	121
1197.05	145
1197.5	137
1197.95	177
1198.4	99
1198.85	149
1199.3	137
1199.75	129
1200.2	145
1200.66	141
1201.11	141
1201.56	103
1202.01	153
1202.46	89
1202.91	177
1203.36	73
1203.81	183
1204.26	143
1204.71	149
1205.16	155
1205.61	133
1206.06	151
1206.51	121
1206.96	145
1207.41	105
1207.86	171
1208.31	83
1208.76	163
1209.21	129
1209.66	113
1210.11	175
1210.56	89
1211.01	143
1211.46	115
1211.91	135
1212.36	133
1212.81	167
1213.26	117
1213.71	151
1214.16	145
1214.61	157
1215.05	159
1215.51	123
1215.95	143
1216.4	151
1216.85	163
1217.3	159
1217.75	139
1218.2	119
1218.65	169
1219.1	133
1219.55	137
1220	127
1220.45	131
1220.9	157
1221.34	141
1221.79	125
1222.24	175
1222.69	115
1223.14	135
1223.59	143
1224.04	147
1224.49	133
1224.94	121
1225.38	137
1225.83	129
1226.28	149
1226.73	121
1227.18	163
1227.63	107
1228.07	139
1228.52	145
1228.97	137
1229.42	183
1229.87	75
1230.32	169
1230.76	111
1231.21	161
1231.66	121
1232.11	167
1232.56	127
1233.01	151
1233.45	149
1233.9	153
1234.35	179
1234.8	53
1235.25	189
1235.69	139
1236.14	151
1236.59	141
1237.04	123
1237.49	125
1237.93	155
1238.38	161
1238.83	129
1239.28	163
1239.72	71
1240.17	175
1240.62	141
1241.07	149
1241.51	151
1241.96	131
1242.41	141
1242.86	167
1243.3	145
1243.75	163
1244.2	153
1244.65	139
1245.09	171
1245.54	137
1245.99	145
1246.44	129
1246.88	117
1247.33	143
1247.78	161
1248.22	137
1248.67	171
1249.12	109
1249.56	121
1250.01	167
1250.46	131
1250.9	147
1251.35	127
1251.8	115
1252.24	135
1252.69	141
1253.14	105
1253.58	167
1254.03	83
1254.48	169
1254.92	141
1255.37	159
1255.82	135
1256.26	113
1256.71	167
1257.15	143
1257.6	173
1258.05	69
1258.49	197
1258.94	95
1259.39	179
1259.83	121
1260.28	153
1260.72	169
1261.17	113
1261.62	165
1262.06	125
1262.51	171
1262.95	85
1263.4	163
1263.85	107
1264.29	151
1264.74	121
1265.18	129
1265.63	149
1266.07	99
1266.52	149
1266.97	141
1267.41	155
1267.86	125
1268.3	145
1268.75	123
1269.19	167
1269.64	143
1270.08	139
1270.53	163
1270.97	133
1271.42	133
1271.86	159
1272.31	111
1272.76	155
1273.2	115
1273.64	145
1274.09	135
1274.53	101
1274.98	135
1275.42	139
1275.87	133
1276.31	123
1276.76	157
1277.2	105
1277.65	179
1278.09	85
1278.54	179
1278.98	133
1279.43	141
1279.87	143
1280.32	123
1280.76	153
1281.21	119
1281.65	171
1282.09	137
1282.54	199
1282.98	85
1283.43	191
1283.87	139
1284.32	133
1284.76	183
1285.21	91
1285.65	175
1286.09	119
1286.54	165
1286.98	139
1287.42	175
1287.87	97
1288.31	195
1288.76	151
1289.2	133
1289.64	191
1290.09	89
1290.53	161
1290.98	109
1291.42	151
1291.86	161
1292.31	141
1292.75	133
1293.19	159
1293.64	145
1294.08	165
1294.53	143
1294.97	133
1295.41	131
1295.85	141
1296.3	141
1296.74	169
1297.19	117
1297.63	139
1298.07	159
1298.51	153
1298.96	177
1299.4	109
1299.84	155
1300.29	161
1300.73	163
1301.17	129
1301.62	161
1302.06	141
1302.5	119
1302.94	171
1303.39	107
1303.83	177
1304.27	91
1304.72	163
1305.16	137
1305.6	171
1306.04	121
1306.49	143
1306.93	111
1307.37	175
1307.81	171
1308.26	123
1308.7	179
1309.14	75
1309.58	201
1310.03	127
1310.47	157
1310.91	151
1311.35	159
1311.8	117
1312.24	163
1312.68	159
1313.12	121
1313.56	173
1314	75
1314.45	175
1314.89	143
1315.33	137
1315.77	155
1316.22	151
1316.66	155
1317.1	161
1317.54	163
1317.98	161
1318.43	147
1318.87	109
1319.31	163
1319.75	149
1320.19	139
1320.63	151
1321.07	121
1321.51	159
1321.96	179
1322.4	135
1322.84	167
1323.28	137
1323.72	143
1324.16	155
1324.6	167
1325.05	153
1325.49	137
1325.93	137
1326.37	149
1326.81	181
1327.25	137
1327.69	205
1328.13	97
1328.57	169
1329.02	179
1329.45	145
1329.9	167
1330.34	135
1330.78	147
1331.22	151
1331.66	171
1332.1	141
1332.54	203
1332.98	107
1333.42	213
1333.86	177
1334.3	171
1334.74	175
1335.18	151
1335.62	201
1336.07	151
1336.5	199
1336.95	147
1337.39	213
1337.83	133
1338.27	209
1338.71	163
1339.15	175
1339.59	217
1340.03	115
1340.47	213
1340.91	175
1341.35	203
1341.79	173
1342.23	163
1342.67	165
1343.11	211
1343.55	173
1343.99	175
1344.43	207
1344.86	131
1345.31	201
1345.74	193
1346.18	173
1346.62	209
1347.06	137
1347.5	213
1347.94	195
1348.38	187
1348.82	183
1349.26	173
1349.7	193
1350.14	197
1350.58	213
1351.02	133
1351.46	197
1351.9	167
1352.33	187
1352.77	183
1353.21	135
1353.65	213
1354.09	139
1354.53	183
1354.97	145
1355.41	163
1355.85	141
1356.29	199
1356.72	135
1357.16	199
1357.6	167
1358.04	145
1358.48	219
1358.92	123
1359.36	197
1359.79	133
1360.23	191
1360.67	149
1361.11	171
1361.55	129
1361.99	171
1362.43	149
1362.87	129
1363.3	193
1363.74	131
1364.18	181
1364.62	151
1365.06	157
1365.49	161
1365.93	129
1366.37	127
1366.81	155
1367.25	153
1367.68	151
1368.12	167
1368.56	139
1369	167
1369.44	113
1369.87	165
1370.31	187
1370.75	129
1371.19	135
1371.62	169
1372.06	139
1372.5	167
1372.94	123
1373.37	145
1373.81	129
1374.25	169
1374.69	133
1375.12	167
1375.56	107
1376	129
1376.44	165
1376.87	107
1377.31	183
1377.75	91
1378.19	185
1378.62	123
1379.06	161
1379.5	143
1379.93	149
1380.37	139
1380.81	133
1381.25	175
1381.68	113
1382.12	173
1382.56	81
1382.99	171
1383.43	135
1383.87	171
1384.3	169
1384.74	117
1385.18	131
1385.61	141
1386.05	165
1386.49	135
1386.92	173
1387.36	93
1387.8	185
1388.23	139
1388.67	143
1389.1	157
1389.54	99
1389.98	141
1390.41	167
1390.85	121
1391.29	149
1391.72	139
1392.16	107
1392.59	167
1393.03	143
1393.47	131
1393.9	147
1394.34	115
1394.77	157
1395.21	173
1395.65	131
1396.08	169
1396.52	115
1396.95	151
1397.39	163
1397.82	151
1398.26	143
1398.7	119
1399.13	145
1399.57	135
1400	157
1400.44	99
1400.87	187
1401.31	91
1401.74	173
1402.18	155
1402.62	143
1403.05	173
1403.49	103
1403.92	155
1404.36	137
1404.79	205
1405.23	85
1405.66	185
1406.1	105
1406.53	153
1406.97	165
1407.4	119
1407.84	173
1408.27	103
1408.71	163
1409.14	131
1409.58	171
1410.01	121
1410.45	159
1410.88	119
1411.31	173
1411.75	149
1412.18	129
1412.62	167
1413.05	109
1413.49	155
1413.92	127
1414.36	195
1414.79	147
1415.23	131
1415.66	139
1416.1	159
1416.53	141
1416.96	153
1417.4	143
1417.83	89
1418.27	141
1418.7	135
1419.13	153
1419.57	135
1420	129
1420.44	135
1420.87	151
1421.3	119
1421.74	169
1422.17	127
1422.61	137
1423.04	143
1423.47	165
1423.91	133
1424.34	153
1424.77	109
1425.21	143
1425.64	151
1426.07	111
1426.51	169
1426.94	95
1427.38	161
1427.81	131
1428.24	149
1428.68	107
1429.11	141
1429.54	125
1429.98	155
1430.41	171
1430.84	97
1431.28	171
1431.71	87
1432.14	167
1432.57	113
1433.01	165
1433.44	143
1433.87	139
1434.31	143
1434.74	131
1435.17	155
1435.61	109
1436.04	171
1436.47	87
1436.9	151
1437.34	111
1437.77	151
1438.2	155
1438.63	113
1439.07	137
1439.5	159
1439.93	161
1440.36	107
1440.8	155
1441.23	113
1441.66	161
1442.09	113
1442.53	149
1442.96	153
1443.39	129
1443.82	135
1444.26	151
1444.69	123
1445.12	139
1445.55	125
1445.98	131
1446.42	153
1446.85	121
1447.28	127
1447.71	149
1448.14	127
1448.57	121
1449.01	167
1449.44	121
1449.87	181
1450.3	101
1450.73	163
1451.17	143
1451.6	121
1452.03	151
1452.46	127
1452.89	133
1453.32	125
1453.76	161
1454.19	105
1454.62	189
1455.05	77
1455.48	169
1455.91	137
1456.34	121
1456.77	159
1457.21	123
1457.64	143
1458.07	97
1458.5	178.618
1458.93	109.435
1459.36	184.2
1459.79	105.988
1460.22	177.396
1460.65	142.095
1461.08	143.82
1461.52	153.22
1461.95	109.458
1462.38	157.833
1462.81	126.426
1463.24	162.649
1463.67	129.336
1464.1	140.989
1464.53	111.836
1464.96	144.035
1465.39	123.866
1465.82	136.805
1466.25	153.626
1466.68	124.642
1467.11	146.212
1467.54	116.937
1467.98	132.355
1468.41	156.321
1468.84	142.865
1469.27	125.966
1469.7	152.088
1470.13	137.138
1470.56	143.461
1470.99	137.122
1471.42	120.628
1471.85	136.536
1472.28	154.298
1472.71	124.737
1473.14	161.207
1473.57	126.45
1474	154.073
1474.43	144.756
1474.86	150.521
1475.29	156.51
1475.72	122.508
1476.15	150.207
1476.58	137.695
1477.01	166.635
1477.44	105.246
1477.87	164.543
1478.3	103.593
1478.72	152.363
1479.15	145.167
1479.58	124.833
1480.01	158.772
1480.44	109.451
1480.87	160.576
1481.3	117.951
1481.73	182.679
1482.16	110.828
1482.59	165.295
1483.02	113.547
1483.45	142.628
1483.88	158.494
1484.31	114.594
1484.74	150.684
1485.17	119.186
1485.59	159.747
1486.02	139.629
1486.45	134.721
1486.88	126.28
1487.31	136.242
1487.74	129.955
1488.17	118.449
1488.6	144.111
1489.02	119.387
1489.45	140.993
1489.88	139.149
1490.31	146.157
1490.74	152.093
1491.17	137.361
1491.6	140.598
1492.03	149.603
1492.45	137.278
1492.88	142.275
1493.31	137.711
1493.74	132.693
1494.17	125.186
1494.6	141.496
1495.02	134.439
1495.45	153.685
1495.88	129.001
1496.31	126.205
1496.74	147.632
1497.17	140.139
1497.59	143.702
1498.02	140.367
1498.45	132.028
1498.88	129.708
1499.31	146.994
1499.73	137.631
1500.16	144.943
1500.59	136.595
1501.02	125.186
1501.45	155.433
1501.87	141.347
1502.13	153
1502.56	151
1502.99	123
1503.43	121
1503.86	123
1504.29	181
1504.72	135
1505.16	179
1505.59	101
1506.02	175
1506.46	129
1506.89	151
1507.32	157
1507.75	109
1508.19	135
1508.62	127
1509.05	165
1509.49	135
1509.92	141
1510.35	103
1510.78	153
1511.21	141
1511.65	145
1512.08	161
1512.51	111
1512.94	153
1513.38	161
1513.81	149
1514.24	175
1514.67	113
1515.11	135
1515.54	165
1515.97	149
1516.4	143
1516.83	127
1517.27	137
1517.7	159
1518.13	177
1518.56	115
1518.99	183
1519.42	117
1519.86	171
1520.29	163
1520.72	135
1521.15	151
1521.58	115
1522.01	131
1522.45	135
1522.88	155
1523.31	101
1523.74	185
1524.17	101
1524.6	161
1525.04	149
1525.47	149
1525.9	157
1526.33	137
1526.76	169
1527.19	145
1527.62	171
1528.05	101
1528.49	177
1528.92	101
1529.35	195
1529.78	139
1530.21	145
1530.64	189
1531.07	125
1531.5	183
1531.93	153
1532.37	175
1532.8	111
1533.23	165
1533.66	125
1534.09	199
1534.52	141
1534.95	151
1535.38	185
1535.81	109
1536.24	169
1536.67	137
1537.1	129
1537.53	159
1537.96	161
1538.39	131
1538.82	151
1539.26	129
1539.68	151
1540.12	155
1540.55	135
1540.98	149
1541.41	171
1541.84	129
1542.27	189
1542.7	131
1543.13	157
1543.56	165
1543.99	113
1544.42	181
1544.85	131
1545.28	149
1545.71	145
1546.14	177
1546.57	133
1547	167
1547.43	101
1547.86	167
1548.29	155
1548.72	111
1549.14	185
1549.57	123
1550.01	161
1550.43	137
1550.86	157.016
1551.29	175.08
1551.72	189
1552.15	121
1552.58	193
1553.01	153
1553.44	125
1553.87	213
1554.3	119
1554.73	181
1555.16	135
1555.59	191
1556.01	157
1556.44	169
1556.87	143
1557.3	179
1557.73	175
1558.16	121
1558.59	173
1559.02	113
1559.45	189
1559.88	145
1560.3	165
1560.73	189
1561.16	135
1561.59	169
1562.02	163
1562.45	155
1562.88	139
1563.31	171
1563.73	143
1564.16	197
1564.59	149
1565.02	161
1565.45	199
1565.88	175
1566.3	183
1566.73	197
1567.16	153
1567.59	193
1568.02	143
1568.45	179
1568.88	201
1569.3	155
1569.73	169
1570.16	189
1570.59	155
1571.01	177
1571.44	219
1571.87	175
1572.3	255
1572.73	147
1573.15	225
1573.58	181
1574.01	213
1574.44	177
1574.87	187
1575.29	173
1575.72	185
1576.15	213
1576.58	187
1577	261
1577.43	131
1577.86	241
1578.29	191
1578.71	227
1579.14	223
1579.57	233
1580	225
1580.42	229
1580.85	271
1581.28	233
1581.71	295
1582.13	187
1582.56	283
1582.99	273
1583.41	285
1583.84	307
1584.27	275
1584.7	267
1585.12	283
1585.55	311
1585.98	295
1586.4	337
1586.83	289
1587.26	413
1587.68	395
1588.11	413
1588.54	441
1588.96	459
1589.39	509
1589.82	525
1590.24	529
1590.67	625
1591.1	593
1591.52	647
1591.95	713
1592.38	713
1592.8	787
1593.23	757
1593.65	805
1594.08	831
1594.51	867
1594.93	833
1595.36	889
1595.79	839
1596.21	851
1596.64	825
1597.06	819
1597.49	767
1597.92	703
1598.34	667
1598.77	585
1599.19	643
1599.62	541
1600.05	569
1600.47	439
1600.9	509
1601.32	413
1601.75	387
1602.18	385
1602.6	305
1603.03	333
1603.45	357
1603.88	319
1604.3	239
1604.73	315
1605.15	221
1605.58	277
1606	251
1606.43	243
1606.86	241
1607.28	195
1607.71	231
1608.13	233
1608.56	231
1608.98	175
1609.41	215
1609.83	155
1610.26	225
1610.68	183
1611.11	185
1611.53	211
1611.96	145
1612.38	203
1612.81	187
1613.23	183
1613.66	173
1614.08	191
1614.51	151
1614.93	161
1615.36	151
1615.78	173
1616.21	193
1616.63	191
1617.06	181
1617.48	189
1617.9	153
1618.33	203
1618.75	129
1619.18	191
1619.6	171
1620.03	125
1620.45	183
1620.88	155
1621.3	171
1621.72	129
1622.15	199
1622.57	141
1623	199
1623.42	121
1623.85	187
1624.27	151
1624.69	143
1625.12	191
1625.54	129
1625.97	189
1626.39	147
1626.81	191
1627.24	145
1627.66	191
1628.08	113
1628.51	181
1628.93	143
1629.36	151
1629.78	201
1630.2	111
1630.63	179
1631.05	125
1631.47	193
1631.9	147
1632.32	157
1632.74	93
1633.17	177
1633.59	155
1634.01	131
1634.44	173
1634.86	109
1635.28	169
1635.71	113
1636.13	145
1636.55	157
1636.98	135
1637.4	131
1637.82	173
1638.25	127
1638.67	141
1639.09	171
1639.51	117
1639.94	179
1640.36	141
1640.78	139
1641.21	169
1641.63	127
1642.05	123
1642.47	163
1642.9	133
1643.32	175
1643.74	117
1644.17	139
1644.59	131
1645.01	151
1645.43	149
1645.86	173
1646.28	119
1646.7	113
1647.12	165
1647.55	107
1647.97	149
1648.39	89
1648.81	139
1649.23	137
1649.66	165
1650.08	121
1650.5	159
1650.92	91
1651.35	127
1651.77	149
1652.19	129
1652.61	163
1653.03	75
1653.45	149
1653.88	131
1654.3	159
1654.72	115
1655.14	143
1655.56	133
1655.99	117
1656.41	153
1656.83	109
1657.25	177
1657.67	63
1658.09	177
1658.52	111
1658.94	151
1659.36	141
1659.78	139
1660.2	135
1660.62	139
1661.04	153
1661.47	115
1661.89	169
1662.31	77
1662.73	153
1663.15	123
1663.57	141
1663.99	149
1664.41	107
1664.83	137
1665.26	127
1665.68	141
1666.1	145
1666.52	131
1666.94	115
1667.36	135
1667.78	131
1668.2	133
1668.62	127
1669.04	115
1669.46	147
1669.89	133
1670.31	95
1670.73	149
1671.15	111
1671.57	117
1671.99	145
1672.41	123
1672.83	131
1673.25	103
1673.67	119
1674.09	141
1674.51	159
1674.93	109
1675.35	165
1675.77	89
1676.19	161
1676.61	139
1677.03	139
1677.45	135
1677.87	113
1678.29	133
1678.71	135
1679.13	145
1679.55	85
1679.97	157
1680.39	71
1680.81	171
1681.23	109
1681.65	131
1682.07	137
1682.49	99
1682.91	153
1683.33	133
1683.75	157
1684.17	83
1684.59	183
1685.01	79
1685.43	165
1685.85	117
1686.27	125
1686.69	157
1687.11	87
1687.53	133
1687.95	127
1688.37	135
1688.78	103
1689.2	133
1689.62	113
1690.04	147
1690.46	121
1690.88	113
1691.3	145
1691.72	103
1692.14	125
1692.56	139
1692.98	121
1693.39	135
1693.81	107
1694.23	131
1694.65	141
1695.07	103
1695.49	131
1695.91	131
1696.33	117
1696.75	125
1697.16	145
1697.58	89
1698	155
1698.42	85
1698.84	137
1699.26	127
1699.68	99
1700.09	143
1700.51	105
1700.93	145
1701.35	111
1701.77	151
1702.19	105
1702.6	171
1703.02	85
1703.44	153
1703.86	107
1704.28	113
1704.69	145
1705.11	97
1705.53	141
1705.95	87
1706.37	159
1706.78	119
1707.2	155
1707.62	63
1708.04	153
1708.46	127
1708.87	115
1709.29	169
1709.71	85
1710.13	145
1710.54	85
1710.96	143
1711.38	119
1711.8	135
1712.22	99
1712.63	153
1713.05	141
1713.47	113
1713.89	153
1714.3	125
1714.72	157
1715.14	129
1715.56	143
1715.97	153
1716.39	107
1716.81	119
1717.22	147
1717.64	153
1718.06	131
1718.48	125
1718.89	131
1719.31	135
1719.73	119
1720.14	125
1720.56	159
1720.98	115
1721.39	115
1721.81	151
1722.23	125
1722.64	165
1723.06	79
1723.48	117
1723.89	135
1724.31	137
1724.73	115
1725.14	141
1725.56	97
1725.98	145
1726.39	149
1726.81	103
1727.23	153
1727.64	69
1728.06	149
1728.48	123
1728.89	153
1729.31	99
1729.72	155
1730.14	99
1730.56	123
1730.97	137
1731.39	101
1731.8	177
1732.22	49
1732.64	159
1733.05	111
1733.47	131
1733.89	115
1734.3	117
1734.72	115
1735.13	131
1735.55	145
1735.96	103
1736.38	165
1736.8	47
1737.21	159
1737.63	121
1738.04	139
1738.46	137
1738.87	103
1739.29	103
1739.71	139
1740.12	139
1740.54	137
1740.95	143
1741.37	93
1741.78	149
1742.2	117
1742.61	119
1743.03	133
1743.44	115
1743.86	147
1744.27	131
1744.69	111
1745.1	133
1745.52	121
1745.93	105
1746.35	157
1746.77	125
1747.18	115
1747.59	131
1748.01	115
1748.42	133
1748.84	135
1749.25	107
1749.67	163
1750.08	89
1750.5	115
1750.91	115
1751.33	127
1751.74	127
1752.16	105
1752.57	107
1752.99	119
1753.4	129
1753.81	91
1754.23	179
1754.64	65
1755.06	161
1755.47	131
1755.89	127
1756.3	137
1756.72	97
1757.13	131
1757.54	117
1757.96	145
1758.37	75
1758.78	173
1759.2	75
1759.61	157
1760.03	107
1760.44	131
1760.86	145
1761.27	75
1761.68	149
1762.1	125
1762.51	129
1762.92	93
1763.34	145
1763.75	83
1764.17	147
1764.58	107
1764.99	107
1765.41	139
1765.82	93
1766.23	141
1766.65	133
1767.06	143
1767.47	91
1767.89	113
1768.3	111
1768.71	147
1769.13	103
1769.54	113
1769.95	137
1770.37	89
1770.78	137
1771.19	129
1771.61	125
1772.02	123
1772.43	93
1772.85	117
1773.26	133
1773.67	97
1774.09	139
1774.5	117
1774.91	131
1775.32	119
1775.74	125
1776.15	87
1776.56	163
1776.97	77
1777.39	167
1777.8	133
1778.21	107
1778.62	149
1779.04	101
1779.45	119
1779.86	79
1780.28	159
1780.69	91
1781.1	155
1781.51	79
1781.92	149
1782.34	127
1782.75	107
1783.16	163
1783.57	75
1783.99	157
1784.4	97
1784.81	143
1785.22	103
1785.63	149
1786.05	87
1786.46	141
1786.87	117
1787.28	105
1787.69	167
1788.11	79
1788.52	147
1788.93	105
1789.34	125
1789.75	131
1790.17	113
1790.58	91
1790.99	135
1791.4	115
1791.81	127
1792.22	147
1792.63	91
1793.05	131
1793.46	83
1793.87	119
1794.28	165
1794.69	101
1795.1	79
1795.52	151
1795.93	131
1796.34	143
1796.75	95
1797.16	127
1797.57	127
1797.98	127
1798.39	105
1798.81	157
1799.22	93
1799.63	137
1800.04	151
1800.45	117
1800.86	159
1801.27	81
1801.68	127
1802.09	127
1802.5	149
1802.91	105
1803.32	141
1803.73	91
1804.15	129
1804.56	143
1804.97	107
1805.38	179
1805.79	79
1806.2	161
1806.61	109
1807.02	163
1807.43	111
1807.84	127
1808.25	105
1808.66	133
1809.07	135
1809.48	107
1809.89	169
1810.3	43
1810.71	147
1811.12	111
1811.53	121
1811.94	133
1812.35	99
1812.76	115
1813.17	137
1813.58	137
1813.99	107
1814.4	145
1814.81	79
1815.22	159
1815.63	127
1816.04	113
1816.45	121
1816.86	127
1817.27	135
1817.68	141
1818.09	115
1818.5	127
1818.91	109
1819.32	85
1819.73	145
1820.14	119
1820.55	111
1820.96	123
1821.37	113
1821.78	145
1822.19	123
1822.6	107
1823.01	157
1823.42	91
1823.82	131
1824.23	135
1824.64	135
1825.05	131
1825.46	107
1825.87	109
1826.28	121
1826.69	133
1827.1	97
1827.51	163
1827.91	75
1828.32	149
1828.73	127
1829.14	117
1829.55	143
1829.96	95
1830.37	131
1830.78	111
1831.18	151
1831.59	75
1832	175
1832.41	51
1832.82	159
1833.23	109
1833.64	123
1834.05	147
1834.45	85
1834.86	127
1835.27	117
1835.68	139
1836.09	89
1836.49	155
1836.9	95
1837.31	133
1837.72	111
1838.13	107
1838.53	139
1838.94	69
1839.35	137
1839.76	127
1840.17	147
1840.58	105
1840.98	115
1841.39	105
1841.8	149
1842.21	99
1842.61	115
1843.02	149
1843.43	79
1843.84	125
1844.25	127
1844.65	133
1845.06	95
1845.47	113
1845.88	125
1846.28	136.896
1846.69	118.724
1847.1	112.932
1847.51	132.2
1847.91	107.628
1848.32	125.705
1848.73	120.566
1849.14	114.605
1849.54	143.789
1849.95	114.997
1850.36	122.683
1850.77	123.816
1851.17	106.239
1851.58	140.245
1851.99	122.465
1852.39	113.344
1852.8	105.663
1853.21	133.621
1853.62	99.8991
1854.02	150.923
1854.43	85.4648
1854.84	151.507
1855.24	135.884
1855.65	102.785
1856.06	147.055
1856.46	81.6202
1856.87	141.975
1857.28	91.121
1857.68	136.336
1858.09	106.301
1858.5	147.774
1858.9	104.477
1859.31	122.293
1859.72	125.744
1860.12	107.271
1860.53	157.965
1860.94	94.944
1861.34	166.049
1861.75	88.4113
1862.15	138.207
1862.56	112.555
1862.97	130.67
1863.37	104.754
1863.78	122.087
1864.19	120.524
1864.59	122.494
1865	147.615
1865.4	90.7475
1865.81	139.042
1866.22	94.6629
1866.62	139.906
1867.03	130.563
1867.43	124.238
1867.84	112.018
1868.25	139.964
1868.65	123.614
1869.06	128.934
1869.46	130.702
1869.87	101.941
1870.28	155.016
1870.68	127.048
1871.09	129.033
1871.49	133.019
1871.9	123.167
1872.3	120.787
1872.71	129.663
1873.12	118.73
1873.52	133.501
1873.93	127.988
1874.33	118.449
1874.74	133.434
1875.14	126.426
1875.55	118.22
1875.95	135.726
1876.36	105.31
1876.76	143.244
1877.17	125.111
1877.57	108.359
1877.98	141.114
1878.38	108.734
1878.79	122.847
1879.19	125.505
1879.6	134.26
1880	130.691
1880.41	130.067
1880.81	110.496
1881.22	130.579
1881.63	133.043
1882.03	109.167
1882.43	131.58
1882.84	125.069
1883.24	126.462
1883.65	127.217
1884.05	100.261
1884.46	132.967
1884.86	122.979
1885.27	117.224
1885.67	130.5
1886.08	121.799
1886.48	105.919
1886.89	100.339
1887.29	111.123
1887.69	118.374
1888.1	140.896
1888.5	76.0132
1888.85	157
1889.26	123
1889.67	131
1890.08	129
1890.49	133
1890.9	103
1891.3	99
1891.71	137
1892.12	107
1892.53	183
1892.94	51
1893.35	175
1893.76	99
1894.17	137
1894.58	147
1894.99	103
1895.4	127
1895.81	121
1896.22	147
1896.62	99
1897.03	161
1897.44	47
1897.85	159
1898.26	123
1898.67	129
1899.08	129
1899.49	97
1899.9	127
1900.3	107
1900.71	139
1901.12	103
1901.53	121
1901.94	83
1902.35	141
1902.75	137
1903.16	115
1903.57	151
1903.98	95
1904.39	127
1904.8	125
1905.21	115
1905.61	147
1906.02	109
1906.43	115
1906.84	125
1907.25	123
1907.66	145
1908.06	101
1908.47	125
1908.88	125
1909.29	153
1909.7	103
1910.1	159
1910.51	71
1910.92	111
1911.33	133
1911.73	115
1912.14	133
1912.55	99
1912.96	129
1913.37	143
1913.77	161
1914.18	103
1914.59	167
1915	97
1915.4	131
1915.81	127
1916.22	127
1916.63	145
1917.03	75
1917.44	159
1917.85	119
1918.26	139
1918.66	101
1919.07	173
1919.48	83
1919.89	171
1920.29	129
1920.7	95
1921.11	163
1921.51	67
1921.92	137
1922.33	109
1922.73	169
1923.14	85
1923.55	137
1923.96	93
1924.36	145
1924.77	117
1925.18	103
1925.58	157
1925.99	73
1926.4	153
1926.8	113
1927.21	157
1927.62	107
1928.02	119
1928.43	97
1928.84	129
1929.24	133
1929.65	113
1930.06	133
1930.46	95
1930.87	133
1931.28	123
1931.68	109
1932.09	121
1932.49	107
1932.9	115
1933.31	123
1933.71	101
1934.12	149
1934.53	107
1934.93	117
1935.34	117
1935.74	125
1936.15	117
1936.56	141
1936.96	91
1937.37	129
1937.78	143
1938.18	91
1938.59	163
1938.99	123
1939.4	127
1939.8	129
1940.21	143
1940.62	91
1941.02	175
1941.43	87
1941.83	175
1942.24	137
1942.64	89
1943.05	167
1943.45	79
1943.86	139
1944.27	89
1944.67	149
1945.08	91
1945.48	137
1945.89	85
1946.29	135
1946.7	149
1947.1	73
1947.51	173
1947.91	79
1948.32	159
1948.72	99
1949.13	141
1949.53	131
1949.94	147
1950.34	117
1950.75	137
1951.15	131
1951.56	103
1951.96	161
1952.37	91
1952.77	167
1953.18	77
1953.58	129
1953.99	125
1954.39	121
1954.8	99
1955.2	145
1955.61	127
1956.01	117
1956.42	143
1956.82	105
1957.23	141
1957.63	107
1958.03	119
1958.44	137
1958.84	109
1959.25	93
1959.65	131
1960.06	119
1960.46	113
1960.86	119
1961.27	113
1961.67	123
1962.08	113
1962.48	119
1962.89	137
1963.29	81
1963.69	129
1964.1	129
1964.5	103
1964.91	149
1965.31	85
1965.71	129
1966.12	117
1966.52	149
1966.93	103
1967.33	127
1967.73	89
1968.14	129
1968.54	155
1968.94	91
1969.35	171
1969.75	45
1970.15	139
1970.56	105
1970.96	123
1971.37	117
1971.77	149
1972.17	97
1972.58	123
1972.98	157
1973.38	97
1973.79	173
1974.19	71
1974.59	163
1974.99	133
1975.4	127
1975.8	113
1976.21	119
1976.61	93
1977.01	141
1977.41	129
1977.82	103
1978.22	157
1978.62	65
1979.03	141
1979.43	111
1979.83	133
1980.24	115
1980.64	109
1981.04	113
1981.44	159
1981.85	139
1982.25	129
1982.65	143
1983.05	63
1983.46	159
1983.86	115
1984.26	127
1984.66	121
1985.07	93
1985.47	141
1985.87	155
1986.27	117
1986.68	129
1987.08	113
1987.48	121
1987.88	149
1988.29	129
1988.69	117
1989.09	127
1989.49	97
1989.89	131
1990.3	143
1990.7	103
1991.1	143
1991.5	85
1991.9	135
1992.31	129
1992.71	143
1993.11	131
1993.51	97
1993.91	107
1994.32	129
1994.72	147
1995.12	127
1995.52	181
1995.92	83
1996.32	141
1996.73	131
1997.13	141
1997.53	145
1997.93	101
1998.33	139
1998.73	127
1999.14	145
1999.54	89
1999.94	175
2000.34	81
2000.74	169
2001.14	117
2001.54	143
2001.94	117
2002.35	101
2002.75	123
2003.15	123
2003.55	141
2003.95	83
2004.35	183
2004.75	87
2005.15	171
2005.55	105
2005.96	125
2006.36	137
2006.76	95
2007.16	151
2007.56	131
2007.96	145
2008.36	99
2008.76	139
2009.16	91
2009.56	129
2009.96	105
2010.36	117
2010.76	151
2011.16	97
2011.57	143
2011.97	137
2012.37	133
2012.77	117
2013.17	121
2013.57	123
2013.97	137
2014.37	121
2014.77	137
2015.17	145
2015.57	115
2015.97	135
2016.37	137
2016.77	105
2017.17	139
2017.57	101
2017.97	141
2018.37	137
2018.77	109
2019.17	143
2019.57	127
2019.97	109
2020.37	107
2020.77	137
2021.17	117
2021.57	165
2021.97	99
2022.37	141
2022.77	131
2023.17	121
2023.57	141
2023.97	109
2024.37	125
2024.77	109
2025.17	153
2025.57	103
2025.97	175
2026.37	57
2026.77	157
2027.16	121
2027.56	111
2027.96	135
2028.36	79
2028.76	151
2029.16	97
2029.56	147
2029.96	99
2030.36	167
2030.76	75
2031.16	139
2031.56	121
2031.96	93
2032.35	167
2032.75	95
2033.15	155
2033.55	93
2033.95	153
2034.35	115
2034.75	135
2035.15	91
2035.54	157
2035.94	103
2036.34	139
2036.74	163
2037.14	95
2037.54	153
2037.94	123
2038.34	141
2038.74	143
2039.13	101
2039.53	105
2039.93	139
2040.33	121
2040.73	121
2041.12	117
2041.52	101
2041.92	135
2042.32	107
2042.72	123
2043.12	147
2043.51	97
2043.91	113
2044.31	151
2044.71	135
2045.11	133
2045.51	107
2045.9	103
2046.3	123
2046.7	129
2047.1	115
2047.49	161
2047.89	97
2048.29	135
2048.69	125
2049.09	115
2049.48	137
2049.88	83
2050.28	147
2050.68	119
2051.07	171
2051.47	91
2051.87	151
2052.27	85
2052.67	125
2053.06	125
2053.46	115
2053.86	151
2054.26	61
2054.65	151
2055.05	91
2055.45	137
2055.85	93
2056.24	143
2056.64	101
2057.04	149
2057.43	135
2057.83	89
2058.23	155
2058.62	67
2059.02	153
2059.42	119
2059.82	133
2060.21	123
2060.61	125
2061.01	127
2061.4	123
2061.8	117
2062.2	129
2062.59	141
2062.99	67
2063.39	139
2063.79	107
2064.18	137
2064.58	125
2064.97	115
2065.37	133
2065.77	139
2066.16	115
2066.56	133
2066.96	145
2067.35	99
2067.75	141
2068.15	123
2068.54	111
2068.94	117
2069.34	115
2069.73	107
2070.13	129
2070.52	89
2070.92	135
2071.32	101
2071.71	133
2072.11	135
2072.51	133
2072.9	111
2073.3	131
2073.69	109
2074.09	129
2074.49	149
2074.88	81
2075.28	171
2075.67	77
2076.07	141
2076.47	119
2076.86	161
2077.26	109
2077.65	119
2078.05	117
2078.44	111
2078.84	143
2079.23	51
2079.63	175
2080.03	71
2080.42	157
2080.82	89
2081.21	143
2081.61	121
2082	95
2082.4	125
2082.79	139
2083.19	133
2083.58	79
2083.98	159
2084.37	83
2084.77	175
2085.16	113
2085.56	127
2085.95	141
2086.35	99
2086.74	121
2087.14	137
2087.53	151
2087.93	85
2088.32	161
2088.72	91
2089.11	165
2089.51	89
2089.9	133
2090.3	149
2090.69	107
2091.09	123
2091.48	123
2091.88	125
2092.27	121
2092.67	105
2093.06	105
2093.46	135
2093.85	103
2094.25	129
2094.64	163
2095.03	119
2095.43	113
2095.82	145
2096.22	117
2096.61	161
2097.01	99
2097.4	137
2097.79	121
2098.19	103
2098.58	115
2098.98	125
2099.37	123
2099.76	109
2100.16	145
2100.55	85
2100.95	163
2101.34	75
2101.73	143
2102.13	101
2102.52	113
2102.92	117
2103.31	109
2103.7	121
2104.1	103
2104.49	133
2104.88	105
2105.28	165
2105.67	65
2106.07	163
2106.46	109
2106.85	123
2107.25	143
2107.64	123
2108.03	131
2108.43	107
2108.82	153
2109.21	107
2109.61	169
2110	75
2110.39	159
2110.79	103
2111.18	139
2111.57	139
2111.97	101
2112.36	135
2112.75	115
2113.15	133
2113.54	99
2113.93	133
2114.32	67
2114.72	145
2115.11	111
2115.5	107
2115.9	139
2116.29	91
2116.68	113
2117.08	121
2117.47	129
2117.86	143
2118.25	133
2118.65	105
2119.04	149
2119.43	121
2119.82	115
2120.22	117
2120.61	127
2121	133
2121.39	143
2121.79	103
2122.18	161
2122.57	81
2122.96	121
2123.36	165
2123.75	135
2124.14	153
2124.53	87
2124.93	113
2125.32	119
2125.71	133
2126.1	75
2126.49	169
2126.89	77
2127.28	133
2127.67	127
2128.06	127
2128.45	109
2128.85	75
2129.24	117
2129.63	117
2130.02	155
2130.41	87
2130.81	177
2131.2	83
2131.59	173
2131.98	107
2132.37	123
2132.76	123
2133.16	77
2133.55	135
2133.94	111
2134.33	149
2134.72	77
2135.11	165
2135.5	81
2135.9	155
2136.29	115
2136.68	111
2137.07	125
2137.46	73
2137.85	161
2138.24	119
2138.63	115
2139.03	103
2139.42	131
2139.81	103
2140.2	153
2140.59	99
2140.98	115
2141.37	133
2141.76	99
2142.15	141
2142.55	137
2142.94	131
2143.33	123
2143.72	123
2144.11	131
2144.5	141
2144.89	105
2145.28	123
2145.67	115
2146.06	87
2146.45	127
2146.84	139
2147.23	109
2147.62	151
2148.02	93
2148.4	131
2148.8	131
2149.19	93
2149.58	117
2149.97	113
2150.36	121
2150.75	103
2151.14	131
2151.53	101
2151.92	141
2152.31	75
2152.7	141
2153.09	129
2153.48	97
2153.87	151
2154.26	107
2154.65	131
2155.04	101
2155.43	163
2155.82	91
2156.21	167
2156.6	79
2156.99	173
2157.38	127
2157.77	103
2158.16	163
2158.55	73
2158.94	161
2159.33	83
2159.72	151
2160.11	95
2160.5	139
2160.89	85
2161.28	149
2161.66	133
2162.05	103
2162.44	163
2162.83	71
2163.22	125
2163.61	101
2164	145
2164.39	127
2164.78	135
2165.17	107
2165.56	153
2165.95	125
2166.34	119
2166.73	139
2167.11	87
2167.5	147
2167.89	113
2168.28	137
2168.67	131
2169.06	125
2169.45	103
2169.84	141
2170.23	109
2170.62	105
2171	131
2171.39	99
2171.78	135
2172.17	87
2172.56	117
2172.95	135
2173.34	83
2173.73	107
2174.11	139
2174.5	149
2174.89	131
2175.28	107
2175.67	123
2176.06	119
2176.45	141
2176.83	121
2177.22	151
2177.61	81
2178	115
2178.39	137
2178.78	111
2179.16	169
2179.55	73
2179.94	129
2180.33	115
2180.72	151
2181.1	95
2181.49	139
2181.88	93
2182.27	125
2182.66	131
2183.04	83
2183.43	161
2183.82	45
2184.21	139
2184.6	111
2184.98	145
2185.37	107
2185.76	121
2186.15	99
2186.53	125
2186.92	131
2187.31	111
2187.7	163
2188.08	69
2188.47	147
2188.86	95
2189.25	153
2189.63	107
2190.02	129
2190.41	95
2190.8	141
2191.18	135
2191.57	125
2191.96	143
2192.34	69
2192.73	155
2193.12	107
2193.51	131
2193.89	117
2194.28	105
2194.67	111
2195.06	129
2195.44	115
2195.83	109
2196.22	133
2196.6	97
2196.99	137
2197.38	121
2197.76	107
2198.15	113
2198.54	103
2198.92	135
2199.31	125
2199.7	97
2200.08	131
2200.47	87
2200.86	129
2201.24	129
2201.63	141
2202.02	121
2202.4	149
2202.79	109
2203.18	129
2203.56	141
2203.95	77
2204.34	149
2204.72	65
2205.11	147
2205.49	105
2205.88	137
2206.27	93
2206.65	111
2207.04	111
2207.43	125
2207.81	113
2208.2	65
2208.58	147
2208.97	79
2209.36	149
2209.74	93
2210.13	123
2210.51	117
2210.9	121
2211.29	115
2211.67	133
2212.06	143
2212.44	101
2212.83	165
2213.21	81
2213.6	167
2213.98	83
2214.37	135
2214.76	125
2215.14	117
2215.53	103
2215.91	126.998
2216.3	118.744
2216.69	103.465
2217.07	136.121
2217.46	82.3599
2217.84	148.721
2218.23	99.164
2218.61	111.454
2219	138.155
2219.38	85.268
2219.77	102.11
2220.15	123.658
2220.54	109.861
2220.92	110.532
2221.31	114.732
2221.69	111.252
2222.08	115.715
2222.46	116.033
2222.85	110.184
2223.23	143.763
2223.62	113.886
2224	106.5
2224.39	142.828
2224.77	106.806
2225.16	154.578
2225.54	115.733
2225.93	121.048
2226.31	121.37
2226.7	120.818
2227.08	125.594
2227.47	134.622
2227.85	106.586
2228.23	108.086
2228.62	142.631
2229	103.723
2229.39	156.909
2229.77	88.8902
2230.16	128.76
2230.54	120.128
2230.92	129.39
2231.31	120.932
2231.69	128.441
2232.08	98.7924
2232.46	95.3054
2232.85	131.797
2233.23	92.3792
2233.62	139.13
2234	90.0184
2234.38	121.584
2234.77	106.787
2235.15	131.571
2235.54	132.419
2235.92	126.251
2236.3	117.732
2236.69	111.175
2237.07	142.714
2237.46	117.749
2237.84	137.42
2238.22	96.1737
2238.61	125.659
2238.99	107.301
2239.37	122.356
2239.76	138.56
2240.14	122.908
2240.53	127.395
2240.91	95.0705
2241.29	136.024
2241.68	122.855
2242.06	143.451
2242.44	98.2516
2242.83	121.238
2243.21	107.975
2243.59	117.897
2243.98	131.298
2244.36	111.353
2244.74	133.024
2245.13	81.0899
2245.51	144.764
2245.89	117.305
2246.28	124.524
2246.66	113.7
2247.04	114.204
2247.43	108.509
2247.81	127.458
2248.19	132.269
2248.58	109.084
2248.96	131.756
2249.34	71.8119
2249.73	144.832
2250.11	121.675
2250.49	134.199
2250.88	125.019
2251.26	105.459
2251.64	126.454
2252.02	138.864
2252.41	118.891
2252.79	117.074
2252.8	117
2253.18	129
2253.57	89
2253.96	133
2254.35	137
2254.74	125
2255.12	125
2255.51	101
2255.9	121
2256.29	139
2256.67	109
2257.06	141
2257.45	101
2257.84	107
2258.22	129
2258.61	109
2259	121
2259.39	105
2259.77	101
2260.16	123
2260.55	121
2260.94	91
2261.32	151
2261.71	79
2262.1	117
2262.48	127
2262.87	137
2263.26	113
2263.65	107
2264.03	105
2264.42	113
2264.81	141
2265.19	97
2265.58	185
2265.97	71
2266.35	161
2266.74	107
2267.13	143
2267.51	93
2267.9	107
2268.29	97
2268.67	119
2269.06	127
2269.45	65
2269.83	171
2270.22	73
2270.61	161
2270.99	99
2271.38	125
2271.77	129
2272.15	97
2272.54	123
2272.93	117
2273.31	145
2273.7	89
2274.08	181
2274.47	77
2274.86	139
2275.24	109
2275.63	129
2276.02	125
2276.4	101
2276.79	103
2277.17	133
2277.56	119
2277.95	107
2278.33	129
2278.72	83
2279.1	137
2279.49	87
2279.88	143
2280.26	131
2280.65	107
2281.03	121
2281.42	141
2281.8	117
2282.19	127
2282.58	113
2282.96	119
2283.35	139
2283.73	101
2284.12	113
2284.5	139
2284.89	81
2285.28	115
2285.66	139
2286.05	117
2286.43	161
2286.82	91
2287.2	131
2287.59	111
2287.97	131
2288.36	115
2288.74	161
2289.13	87
2289.51	109
2289.9	147
2290.28	105
2290.67	155
2291.05	63
2291.44	159
2291.82	81
2292.21	125
2292.59	97
2292.98	121
2293.36	123
2293.75	121
2294.13	141
2294.52	99
2294.9	175
2295.29	69
2295.67	157
2296.06	123
2296.44	127
2296.83	123
2297.21	115
2297.6	109
2297.98	111
2298.36	139
2298.75	115
2299.13	171
2299.52	57
2299.9	163
2300.29	123
2300.67	137
2301.06	117
2301.44	101
2301.82	99
2302.21	113
2302.59	117
2302.98	99
2303.36	143
2303.75	75
2304.13	171
2304.51	115
2304.9	117
2305.28	119
2305.67	113
2306.05	137
2306.44	151
2306.82	143
2307.2	121
2307.59	115
2307.97	87
2308.35	141
2308.74	129
2309.12	127
2309.51	135
2309.89	99
2310.27	137
2310.66	135
2311.04	111
2311.42	149
2311.81	103
2312.19	139
2312.57	131
2312.96	135
2313.34	115
2313.73	133
2314.11	107
2314.49	149
2314.88	151
2315.26	93
2315.64	157
2316.03	81
2316.41	141
2316.79	119
2317.18	139
2317.56	107
2317.94	119
2318.32	113
2318.71	125
2319.09	147
2319.47	73
2319.86	159
2320.24	79
2320.62	157
2321.01	119
2321.39	145
2321.77	127
2322.15	101
2322.54	111
2322.92	127
2323.3	135
2323.69	75
2324.07	175
2324.45	81
2324.83	161
2325.22	87
2325.6	115
2325.98	119
2326.36	97
2326.75	133
2327.13	121
2327.51	149
2327.89	73
2328.28	171
2328.66	79
2329.04	147
2329.42	95
2329.81	125
2330.19	175
2330.57	109
2330.95	141
2331.33	135
2331.72	145
2332.1	103
2332.48	139
2332.86	109
2333.24	141
2333.63	99
2334.01	109
2334.39	139
2334.77	107
2335.15	121
2335.54	131
2335.92	93
2336.3	121
2336.68	105
2337.06	107
2337.44	143
2337.83	101
2338.21	125
2338.59	143
2338.97	103
2339.35	103
2339.73	137
2340.12	105
2340.5	155
2340.88	87
2341.26	131
2341.64	133
2342.02	117
2342.41	123
2342.79	131
2343.17	89
2343.55	135
2343.93	155
2344.31	113
2344.69	177
2345.07	75
2345.45	167
2345.84	111
2346.22	143
2346.6	119
2346.98	131
2347.36	117
2347.74	113
2348.12	141
2348.5	103
2348.88	173
2349.26	65
2349.65	161
2350.03	109
2350.41	123
2350.79	141
2351.17	117
2351.55	125
2351.93	115
2352.31	161
2352.69	103
2353.07	173
2353.45	55
2353.83	153
2354.21	109
2354.59	113
2354.98	119
2355.35	113
2355.74	119
2356.12	135
2356.5	127
2356.88	147
2357.26	137
2357.64	95
2358.02	153
2358.4	137
2358.78	139
2359.16	127
2359.54	121
2359.92	135
2360.3	123
2360.68	107
2361.06	141
2361.44	107
2361.82	93
2362.2	153
2362.58	147
2362.96	103
2363.34	137
2363.72	103
2364.1	137
2364.48	145
2364.86	123
2365.24	143
2365.62	101
2366	145
2366.38	115
2366.75	143
2367.14	115
2367.51	131
2367.89	91
2368.27	133
2368.65	135
2369.03	91
2369.41	171
2369.79	71
2370.17	171
2370.55	115
2370.93	135
2371.31	113
2371.69	123
2372.07	117
2372.45	137
2372.83	141
2373.2	83
2373.58	163
2373.96	77
2374.34	165
2374.72	97
2375.1	135
2375.48	121
2375.86	137
2376.24	99
2376.61	131
2376.99	131
2377.37	101
2377.75	191
2378.13	95
2378.51	145
2378.89	95
2379.27	157
2379.65	125
2380.02	107
2380.4	113
2380.78	133
2381.16	133
2381.54	109
2381.92	143
2382.3	91
2382.67	163
2383.05	97
2383.43	137
2383.81	153
2384.19	119
2384.57	111
2384.94	131
2385.32	125
2385.7	125
2386.08	103
2386.46	109
2386.83	139
2387.21	121
2387.59	117
2387.97	161
2388.35	93
2388.73	115
2389.1	123
2389.48	115
2389.86	153
2390.24	109
2390.62	133
2390.99	119
2391.37	117
2391.75	133
2392.13	149
2392.5	101
2392.88	105
2393.26	163
2393.64	121
2394.01	165
2394.39	85
2394.77	131
2395.15	143
2395.52	133
2395.9	121
2396.28	149
2396.66	111
2397.04	113
2397.41	151
2397.79	113
2398.17	153
2398.54	69
2398.92	145
2399.3	131
2399.68	143
2400.05	107
2400.43	125
2400.81	115
2401.18	111
2401.56	143
2401.94	107
2402.32	179
2402.69	65
2403.07	177
2403.45	117
2403.82	153
2404.2	127
2404.58	101
2404.95	127
2405.33	125
2405.71	135
2406.09	91
2406.46	153
2406.84	59
2407.22	163
2407.59	133
2407.97	115
2408.34	133
2408.72	99
2409.1	131
2409.47	123
2409.85	145
2410.23	109
2410.6	159
2410.98	99
2411.36	157
2411.73	109
2412.11	135
2412.49	135
2412.86	107
2413.24	131
2413.61	147
2413.99	123
2414.37	147
2414.74	133
2415.12	103
2415.5	155
2415.87	131
2416.25	141
2416.62	117
2417	103
2417.37	135
2417.75	127
2418.13	117
2418.5	173
2418.88	117
2419.25	147
2419.63	131
2420.01	159
2420.38	123
2420.76	121
2421.13	105
2421.51	157
2421.88	155
2422.26	107
2422.64	183
2423.01	99
2423.39	175
2423.76	131
2424.14	141
2424.51	117
2424.89	131
2425.26	101
2425.64	131
2426.01	135
2426.39	55
2426.76	189
2427.14	85
2427.52	163
2427.89	103
2428.26	127
2428.64	121
2429.02	125
2429.39	123
2429.77	143
2430.14	137
2430.52	89
2430.89	165
2431.26	97
2431.64	169
2432.02	103
2432.39	149
2432.77	151
2433.14	127
2433.51	111
2433.89	143
2434.26	153
2434.64	107
2435.01	183
2435.39	99
2435.76	173
2436.14	117
2436.51	151
2436.89	149
2437.26	127
2437.63	135
2438.01	141
2438.38	143
2438.76	125
2439.13	143
2439.51	129
2439.88	171
2440.26	129
2440.63	161
2441	169
2441.38	139
2441.75	163
2442.13	167
2442.5	161
2442.87	201
2443.25	135
2443.62	167
2444	153
2444.37	167
2444.74	161
2445.12	195
2445.49	137
2445.87	143
2446.24	193
2446.61	163
2446.99	215
2447.36	143
2447.73	195
2448.11	167
2448.48	169
2448.86	177
2449.23	185
2449.6	123
2449.98	165
2450.35	209
2450.72	153
2451.1	217
2451.47	109
2451.84	191
2452.22	173
2452.59	175
2452.97	193
2453.34	191
2453.71	171
2454.08	193
2454.46	195
2454.83	151
2455.2	227
2455.58	121
2455.95	217
2456.32	157
2456.7	195
2457.07	171
2457.44	161
2457.82	163
2458.19	199
2458.56	183
2458.93	143
2459.31	237
2459.68	127
2460.05	219
2460.43	151
2460.8	177
2461.17	161
2461.54	155
2461.92	171
2462.29	183
2462.66	167
2463.03	149
2463.41	167
2463.78	135
2464.15	205
2464.52	187
2464.9	161
2465.27	177
2465.64	155
2466.01	173
2466.39	233
2466.76	255.8
2467.13	198.36
2467.5	179
2467.88	151
2468.25	167
2468.62	169
2468.99	139
2469.37	181
2469.74	131
2470.11	173
2470.48	171
2470.85	125
2471.22	201
2471.6	117
2471.97	163
2472.34	155
2472.71	161
2473.08	141
2473.46	165
2473.83	135
2474.2	177
2474.57	183
2474.94	115
2475.32	199
2475.69	127
2476.06	173
2476.43	151
2476.8	153
2477.17	145
2477.55	151
2477.92	167
2478.29	165
2478.66	181
2479.03	93
2479.4	221
2479.77	91
2480.15	193
2480.52	105
2480.89	169
2481.26	133
2481.63	145
2482	127
2482.37	139
2482.74	171
2483.12	103
2483.49	189
2483.86	77
2484.23	163
2484.6	125
2484.97	143
2485.34	147
2485.71	117
2486.08	135
2486.46	181
2486.83	165
2487.2	147
2487.57	177
2487.94	117
2488.31	175
2488.68	119
2489.05	133
2489.42	167
2489.79	127
2490.16	141
2490.53	159
2490.9	131
2491.27	125
2491.64	145
2492.01	135
2492.38	169
2492.76	121
2493.13	151
2493.5	163
2493.87	117
2494.24	129
2494.61	139
2494.98	133
2495.35	159
2495.72	117
2496.09	153
2496.46	125
2496.83	117
2497.2	139
2497.57	163
2497.94	113
2498.31	111
2498.68	145
2499.05	123
2499.42	175
2499.79	91
2500.16	177
2500.53	129
2500.9	143
2501.27	125
2501.64	145
2502.01	127
2502.38	133
2502.75	149
2503.12	99
2503.49	183
2503.86	81
2504.23	175
2504.6	105
2504.97	135
2505.34	141
2505.7	139
2506.07	127
2506.44	127
2506.81	141
2507.18	127
2507.55	197
2507.92	77
2508.29	161
2508.66	133
2509.03	151
2509.4	145
2509.77	147
2510.14	133
2510.5	157
2510.88	155
2511.24	119
2511.61	157
2511.98	87
2512.35	191
2512.72	123
2513.09	137
2513.46	143
2513.83	153
2514.2	129
2514.56	137
2514.93	139
2515.3	133
2515.67	127
2516.04	95
2516.41	163
2516.78	123
2517.15	123
2517.51	145
2517.88	101
2518.25	153
2518.62	141
2518.99	125
2519.36	175
2519.73	105
2520.09	125
2520.46	125
2520.83	129
2521.2	149
2521.57	123
2521.94	109
2522.3	157
2522.67	129
2523.04	97
2523.41	163
2523.78	99
2524.15	151
2524.51	137
2524.88	151
2525.25	125
2525.62	125
2525.98	125
2526.35	141
2526.72	171
2527.09	97
2527.46	173
2527.83	95
2528.19	159
2528.56	119
2528.93	141
2529.3	113
2529.66	127
2530.03	121
2530.4	143
2530.77	157
2531.13	95
2531.5	189
2531.87	61
2532.24	173
2532.61	123
2532.97	141
2533.34	155
2533.71	129
2534.07	121
2534.44	141
2534.81	143
2535.18	113
2535.54	151
2535.91	87
2536.28	177
2536.65	99
2537.01	123
2537.38	143
2537.75	101
2538.11	127
2538.48	115
2538.85	129
2539.22	125
2539.58	153
2539.95	93
2540.32	157
2540.68	97
2541.05	141
2541.42	157
2541.78	111
2542.15	131
2542.52	149
2542.89	111
2543.25	149
2543.62	133
2543.99	133
2544.35	135
2544.72	111
2545.08	123
2545.45	147
2545.82	101
2546.19	109
2546.55	153
2546.92	99
2547.28	149
2547.65	97
2548.02	123
2548.38	125
2548.75	115
2549.12	141
2549.48	147
2549.85	107
2550.21	123
2550.58	163
2550.95	115
2551.31	175
2551.68	67
2552.05	165
2552.41	131
2552.78	135
2553.14	117
2553.51	151
2553.88	107
2554.24	89
2554.61	155
2554.97	85
2555.34	189
2555.71	73
2556.07	165
2556.44	123
2556.8	127
2557.17	129
2557.53	119
2557.9	137
2558.27	117
2558.63	157
2559	89
2559.36	185
2559.73	73
2560.09	151
2560.46	105
2560.82	137
2561.19	139
2561.55	109
2561.92	125
2562.29	121
2562.65	163
2563.02	103
2563.38	177
2563.75	77
2564.11	165
2564.48	115
2564.84	141
2565.21	141
2565.57	109.096
2565.94	122.803
2566.3	141.76
2566.67	132.997
2567.03	106.111
2567.4	156.658
2567.76	90.5282
2568.13	160.844
2568.49	114.156
2568.86	126.942
2569.22	126.879
2569.59	95.8316
2569.95	125.429
2570.32	109.766
2570.68	132.734
2571.05	141.023
2571.41	134.045
2571.78	104.949
2572.14	152.817
2572.51	120.716
2572.87	140.331
2573.23	133.763
2573.6	120.094
2573.96	146.677
2574.33	143.783
2574.69	118.942
2575.06	166.998
2575.42	97.102
2575.79	128.673
2576.15	148.807
2576.51	131.885
2576.88	139.584
2577.24	109.421
2577.61	119.594
2577.97	134.835
2578.34	150.394
2578.7	113.89
2579.06	153.134
2579.43	97.7481
2579.79	136.982
2580.16	132.033
2580.52	125.72
2580.88	135.974
2581.25	120.44
2581.61	112.854
2581.98	131.616
2582.34	139.805
2582.7	111.866
2583.07	155.83
2583.43	99.4488
2583.8	144.365
2584.16	133.97
2584.52	137.823
2584.89	146.596
2585.25	189.385
2585.61	193.893
2585.98	159.125
2586.34	156.51
2586.7	109.24
2587.07	150.823
2587.43	128.522
2587.8	152.051
2588.16	147.21
2588.52	126.207
2588.88	149.59
2589.25	114.506
2589.61	136.22
2589.97	151.338
2590.34	147.768
2590.7	107.558
2591.06	134.051
2591.43	129.653
2591.79	127.414
2592.15	158.847
2592.52	98.5978
2592.88	166.125
2593.24	123.737
2593.61	138.549
2593.97	159.615
2594.33	123.023
2594.7	146.357
2595.06	118.026
2595.42	148.55
2595.78	141.289
2596.15	167.388
2596.51	95.6857
2596.87	169.611
2597.24	142.959
2597.6	133.147
2597.96	142.18
2598.32	104.036
2598.69	144.696
2599.05	118.658
2599.41	149.759
2599.78	134.905
2600.14	153.964
2600.5	107.879
2600.86	152.995
2600.95	171
2601.31	137
2601.68	149
2602.05	171
2602.42	99
2602.78	147
2603.15	117
2603.52	149
2603.89	127
2604.25	177
2604.62	105
2604.99	169
2605.35	141
2605.72	139
2606.09	163
2606.46	119
2606.82	167
2607.19	127
2607.56	169
2607.92	143
2608.29	121
2608.66	93
2609.03	159
2609.39	161
2609.76	141
2610.13	145
2610.49	127
2610.86	153
2611.23	171
2611.59	145
2611.96	163
2612.33	131
2612.69	141
2613.06	163
2613.43	137
2613.79	155
2614.16	151
2614.53	135
2614.89	151
2615.26	179
2615.62	111
2615.99	185
2616.36	115
2616.72	159
2617.09	177
2617.46	157
2617.82	177
2618.19	135
2618.56	139
2618.92	149
2619.29	163
2619.65	121
2620.02	203
2620.39	109
2620.75	195
2621.12	151
2621.48	167
2621.85	193
2622.22	125
2622.58	171
2622.95	169
2623.31	197
2623.68	133
2624.04	233
2624.41	129
2624.78	203
2625.14	185
2625.51	181
2625.87	191
2626.24	131
2626.6	199
2626.97	175
2627.34	201
2627.7	179
2628.07	201
2628.43	147
2628.8	209
2629.16	181
2629.53	191
2629.9	247
2630.26	143
2630.63	199
2630.99	181
2631.36	225
2631.72	179
2632.09	207
2632.45	187
2632.82	229
2633.18	185
2633.55	207
2633.91	243
2634.28	173
2634.64	227
2635.01	205
2635.37	197
2635.74	201
2636.1	219
2636.47	175
2636.83	263
2637.2	191
2637.56	229
2637.93	223
2638.29	219
2638.66	229
2639.02	205
2639.39	217
2639.75	255
2640.12	231
2640.48	217
2640.84	253
2641.21	237
2641.57	221
2641.94	239
2642.3	237
2642.67	231
2643.03	255
2643.4	225
2643.76	285
2644.13	199
2644.49	263
2644.85	247
2645.22	257
2645.58	265
2645.95	273
2646.31	255
2646.68	281
2647.04	317
2647.4	249
2647.77	359
2648.13	207
2648.5	353
2648.86	307
2649.22	307
2649.59	339
2649.95	279
2650.32	317
2650.68	303
2651.04	351
2651.41	317
2651.77	357
2652.14	271
2652.5	349
2652.86	329
2653.23	365
2653.59	357
2653.95	335
2654.32	391
2654.68	383
2655.05	379
2655.41	381
2655.77	443
2656.14	325
2656.5	445
2656.86	403
2657.23	395
2657.59	441
2657.95	393
2658.32	455
2658.68	429
2659.04	507
2659.41	495
2659.77	461
2660.13	419
2660.5	537
2660.86	471
2661.22	529
2661.59	523
2661.95	487
2662.31	555
2662.68	525
2663.04	539
2663.4	583
2663.76	577
2664.13	523
2664.49	597
2664.85	585
2665.22	647
2665.58	667
2665.94	627
2666.3	637
2666.67	711
2667.03	671
2667.39	671
2667.76	661
2668.12	691
2668.48	731
2668.84	737
2669.21	733
2669.57	771
2669.93	747
2670.29	767
2670.66	813
2671.02	781
2671.38	863
2671.74	765
2672.11	905
2672.47	853
2672.83	865
2673.19	893
2673.56	873
2673.92	897
2674.28	945
2674.64	993
2675	915
2675.37	971
2675.73	909
2676.09	977
2676.45	991
2676.81	1011
2677.18	1051
2677.54	921
2677.9	1013
2678.26	1093
2678.62	1029
2678.99	953
2679.35	1109
2679.71	1049
2680.07	1059
2680.43	1087
2680.8	1081
2681.16	1069
2681.52	1017
2681.88	1105
2682.24	1011
2682.6	1073
2682.97	1011
2683.33	1135
2683.69	1051
2684.05	1095
2684.41	1079
2684.77	1057
2685.13	1059
2685.5	993
2685.86	1053
2686.22	1033
2686.58	1079
2686.94	991
2687.3	1041
2687.66	1005
2688.03	1057
2688.39	1005
2688.75	997
2689.11	985
2689.47	983
2689.83	1001
2690.19	961
2690.55	965
2690.91	911
2691.28	841
2691.64	839
2692	873
2692.36	833
2692.72	851
2693.08	863
2693.44	789
2693.8	769
2694.16	809
2694.52	749
2694.88	731
2695.24	767
2695.61	759
2695.97	663
2696.33	687
2696.69	703
2697.05	707
2697.41	643
2697.77	687
2698.13	681
2698.49	617
2698.85	705
2699.21	561
2699.57	603
2699.93	579
2700.29	553
2700.65	607
2701.01	529
2701.37	549
2701.73	527
2702.09	535
2702.45	521
2702.81	509
2703.18	495
2703.53	523
2703.89	435
2704.25	441
2704.62	501
2704.98	397
2705.33	459
2705.69	407
2706.06	427
2706.42	385
2706.78	455
2707.13	363
2707.49	423
2707.85	357
2708.22	383
2708.57	399
2708.93	363
2709.29	371
2709.65	327
2710.01	361
2710.37	325
2710.73	369
2711.09	305
2711.45	349
2711.81	333
2712.17	309
2712.53	349
2712.89	275
2713.25	333
2713.61	297
2713.97	319
2714.33	299
2714.69	303
2715.05	237
2715.41	325
2715.76	257
2716.12	247
2716.48	333
2716.84	241
2717.2	257
2717.56	263
2717.92	275
2718.28	259
2718.64	245
2719	277
2719.35	277
2719.71	263
2720.07	255
2720.43	257
2720.79	239
2721.15	245
2721.51	273
2721.87	223
2722.23	255
2722.59	199
2722.94	249
2723.3	219
2723.66	245
2724.02	235
2724.38	217
2724.74	205
2725.1	213
2725.46	239
2725.81	171
2726.17	249
2726.53	181
2726.89	215
2727.25	197
2727.61	203
2727.96	217
2728.32	185
2728.68	223
2729.04	205
2729.4	217
2729.75	155
2730.11	229
2730.47	145
2730.83	245
2731.19	181
2731.55	201
2731.91	209
2732.26	157
2732.62	201
2732.98	161
2733.34	221
2733.69	157
2734.05	227
2734.41	119
2734.77	205
2735.13	163
2735.48	181
2735.84	193
2736.2	123
2736.56	189
2736.91	169
2737.27	195
2737.63	127
2737.99	193
2738.35	137
2738.7	201
2739.06	149
2739.42	143
2739.78	185
2740.13	125
2740.49	189
2740.85	195
2741.21	193
2741.56	159
2741.92	171
2742.28	155
2742.64	193
2742.99	127
2743.35	167
2743.71	183
2744.06	147
2744.42	173
2744.78	180.02
2745.14	178.42
2745.49	217.08
2745.85	175
2746.21	127
2746.57	185
2746.92	161
2747.28	163
2747.64	183
2747.99	119
2748.35	171
2748.71	163
2749.06	143
2749.42	157
2749.78	111
2750.13	157
2750.49	169
2750.85	157
2751.2	157
2751.56	147
2751.92	143
2752.27	157
2752.63	167
2752.99	131
2753.34	193
2753.7	113
2754.06	175
2754.41	143
2754.77	117
2755.13	155
2755.48	161
2755.84	141
2756.2	131
2756.55	167
2756.91	119
2757.26	193
2757.62	101
2757.98	159
2758.33	169
2758.69	149
2759.04	167
2759.4	111
2759.76	159
2760.11	131
2760.47	161
2760.83	121
2761.18	191
2761.54	97
2761.89	193
2762.25	149
2762.61	131
2762.96	177
2763.32	107
2763.67	163
2764.03	105
2764.38	173
2764.74	123
2765.1	191
2765.45	81
2765.81	189
2766.16	113
2766.52	133
2766.88	173
2767.23	101
2767.59	145
2767.94	131
2768.3	139
2768.65	135
2769.01	157
2769.36	95
2769.72	165
2770.07	141
2770.43	139
2770.78	151
2771.14	95
2771.49	153
2771.85	131
2772.21	151
2772.56	147
2772.92	137
2773.27	99
2773.63	169
2773.98	149
2774.34	137
2774.69	159
2775.05	129
2775.4	139
2775.76	165
2776.11	125
2776.47	167
2776.82	113
2777.18	111
2777.53	159
2777.89	139
2778.24	137
2778.59	133
2778.95	131
2779.3	141
2779.66	149
2780.01	117
2780.37	173
2780.72	99
2781.08	147
2781.43	165
2781.79	159
2782.14	135
2782.49	137
2782.85	125
2783.2	147
2783.56	159
2783.91	103
2784.27	191
2784.62	79
2784.98	171
2785.33	123
2785.68	167
2786.04	133
2786.39	105
2786.75	131
2787.1	139
2787.46	161
2787.81	73
2788.16	203
2788.52	99
2788.87	193
2789.22	107
2789.58	153
2789.93	137
2790.29	121
2790.64	133
2790.99	147
2791.35	141
2791.7	91
2792.06	179
2792.41	89
2792.76	171
2793.12	115
2793.47	143
2793.82	143
2794.18	117
2794.53	145
2794.88	177
2795.24	127
2795.59	109
2795.95	161
2796.3	103
2796.65	167
2797.01	103
2797.36	133
2797.71	143
2798.07	111
2798.42	141
2798.77	149
2799.13	119
2799.48	121
2799.83	139
2800.19	93
2800.54	127
2800.89	127
2801.24	135
2801.6	149
2801.95	103
2802.3	125
2802.66	141
2803.01	117
2803.36	163
2803.72	111
2804.07	149
2804.42	131
2804.77	131
2805.13	125
2805.48	167
2805.83	113
2806.19	103
2806.54	139
2806.89	97
2807.24	183
2807.6	71
2807.95	153
2808.3	119
2808.65	143
2809.01	133
2809.36	149
2809.71	99
2810.06	123
2810.42	149
2810.77	89
2811.12	187
2811.47	81
2811.83	173
2812.18	131
2812.53	161
2812.88	121
2813.24	143
2813.59	109
2813.94	129
2814.29	141
2814.64	125
2815	181
2815.35	69
2815.7	179
2816.05	109
2816.4	147
2816.76	123
2817.11	145
2817.46	103
2817.81	143
2818.16	145
2818.52	105
2818.87	177
2819.22	51
2819.57	165
2819.92	119
2820.28	137
2820.63	149
2820.98	105
2821.33	139
2821.68	129
2822.03	145
2822.39	111
2822.74	147
2823.09	89
2823.44	165
2823.79	115
2824.14	139
2824.49	151
2824.85	101
2825.2	143
2825.55	125
2825.9	131
2826.25	139
2826.6	125
2826.95	99
2827.31	135
2827.66	131
2828.01	123
2828.36	143
2828.71	109
2829.06	123
2829.41	121
2829.76	101
2830.11	159
2830.46	107
2830.82	127
2831.17	147
2831.52	153
2831.87	111
2832.22	141
2832.57	99
2832.92	145
2833.27	153
2833.62	109
2833.97	169
2834.32	105
2834.68	147
2835.03	133
2835.38	151
2835.73	119
2836.08	147
2836.43	95
2836.78	133
2837.13	151
2837.48	81
2837.83	187
2838.18	89
2838.53	157
2838.88	107
2839.23	141
2839.58	127
2839.93	111
2840.28	127
2840.63	119
2840.98	151
2841.33	101
2841.68	123.667
2842.03	133.667
2842.38	134.067
2842.73	159
2843.08	153
2843.43	139
2843.78	115
2844.13	123
2844.48	145
2844.83	139
2845.18	119
2845.53	153
2845.88	99
2846.23	163
2846.58	107
2846.93	153
2847.28	133
2847.63	115
2847.98	125
2848.33	135
2848.68	127
2849.03	103
2849.38	153
2849.73	107
2850.08	141
2850.43	117
2850.78	137
2851.13	147
2851.48	99
2851.83	105
2852.18	131
2852.53	143
2852.88	141
2853.23	117
2853.57	115
2853.92	135
2854.27	131
2854.62	131
2854.97	155
2855.32	111
2855.67	109
2856.02	145
2856.37	127
2856.72	155
2857.07	99
2857.42	135
2857.76	111
2858.11	125
2858.46	115
2858.81	141
2859.16	121
2859.51	115
2859.86	145
2860.21	117
2860.56	163
2860.91	61
2861.25	135
2861.6	127
2861.95	139
2862.3	127
2862.65	153
2863	101
2863.35	141
2863.69	139
2864.04	95
2864.39	163
2864.74	65
2865.09	147
2865.44	113
2865.78	161
2866.13	113
2866.48	143
2866.83	109
2867.18	143
2867.53	141
2867.88	109
2868.22	143
2868.57	67
2868.92	163
2869.27	109
2869.62	147
2869.96	121
2870.31	121
2870.66	115
2871.01	143
2871.36	131
2871.7	121
2872.05	149
2872.4	65
2872.75	147
2873.1	115
2873.44	133
2873.79	137
2874.14	127
2874.49	133
2874.84	145
2875.18	139
2875.53	137
2875.88	135
2876.23	111
2876.57	135
2876.92	129
2877.27	153
2877.62	119
2877.97	101
2878.31	125
2878.66	141
2879.01	99
2879.36	143
2879.7	123
2880.05	111
2880.4	143
2880.74	139
2881.09	113
2881.44	141
2881.79	91
2882.13	133
2882.48	141
2882.83	91
2883.18	143
2883.52	99
2883.87	139
2884.22	119
2884.56	149
2884.91	105
2885.26	157
2885.61	109
2885.95	145
2886.3	139
2886.65	95
2886.99	165
2887.34	71
2887.69	149
2888.03	97
2888.38	165
2888.73	105
2889.07	147
2889.42	91
2889.77	131
2890.11	135
2890.46	75
2890.81	153
2891.15	75
2891.5	155
2891.85	87
2892.19	155
2892.54	103
2892.89	143
2893.23	111
2893.58	129
2893.93	135
2894.27	89
2894.62	159
2894.96	91
2895.31	155
2895.66	99
2896	137
2896.35	132.9
2896.7	120.91
2897.04	105.447
2897.39	136.821
2897.73	130.176
2898.08	111.311
2898.43	164.322
2898.77	79.6359
2899.12	155.938
2899.46	99.72
2899.81	139.705
2900.16	135.003
2900.5	118.365
2900.85	96.46
2901.19	142.029
2901.54	119.275
2901.88	112.536
2902.23	154.543
2902.58	97.8311
2902.92	149.839
2903.27	112.187
2903.61	117.367
2903.96	140.217
2904.31	105.513
2904.65	110.046
2905	133.203
2905.34	115.479
2905.69	143.502
2906.03	110.358
2906.38	115.869
2906.72	139.821
2907.07	117.9
2907.42	124.041
2907.76	150.866
2908.11	120.362
2908.45	115.478
2908.8	146.755
2909.14	106.587
2909.49	154.39
2909.83	93.7959
2910.18	134.21
2910.52	129.234
2910.87	128.004
2911.21	124.308
2911.56	141.262
2911.9	104.914
2912.25	109.994
2912.59	141.425
2912.94	102.672
2913.28	171.001
2913.63	80.0544
2913.97	143.133
2914.32	120.525
2914.66	122.601
2915.01	122.779
2915.35	137.24
2915.7	118.017
2916.04	108.028
2916.39	136.454
2916.73	105.456
2917.08	145.111
2917.42	70.461
2917.77	140.561
2918.11	119.798
2918.46	134.069
2918.8	121.415
2919.15	124.628
2919.49	117.166
2919.83	126.569
2920.18	138.003
2920.52	119.988
2920.87	140.227
2921.21	91.4046
2921.56	123.704
2921.9	136.153
2922.24	133.31
2922.59	130.709
2922.93	121.494
2923.28	115.337
2923.62	133.112
2923.97	126
2924.31	122.769
2924.65	132.834
2925	107.602
2925.34	105.634
2925.69	142.187
2926.03	125.32
2926.38	120.594
2926.72	109.76
2927.06	102.976
2927.41	118.908
2927.75	127.35
2928.09	124.745
2928.44	129.264
2928.78	113.228
2929.13	101.806
2929.47	148.478
2929.81	122.271
2930.16	141.833
2930.5	124.837
2930.79	103
2931.14	127
2931.49	131
2931.84	129
2932.19	149
2932.54	113
2932.88	109
2933.23	145
2933.58	135
2933.93	125
2934.28	133
2934.63	101
2934.97	143
2935.32	139
2935.67	123
2936.02	147
2936.37	113
2936.71	123
2937.06	123
2937.41	129
2937.76	111
2938.11	145
2938.46	121
2938.8	145
2939.15	167
2939.5	93
2939.85	183
2940.19	93
2940.54	149
2940.89	135
2941.24	133
2941.59	127
2941.93	109
2942.28	123
2942.63	135
2942.98	159
2943.32	93
2943.67	169
2944.02	75
2944.37	145
2944.72	97
2945.06	135
2945.41	145
2945.76	105
2946.11	111
2946.45	147
2946.8	141
2947.15	79
2947.49	179
2947.84	83
2948.19	149
2948.54	119
2948.88	149
2949.23	119
2949.58	93
2949.93	129
2950.27	125
2950.62	153
2950.97	95
2951.31	179
2951.66	97
2952.01	153
2952.35	89
2952.7	131
2953.05	149
2953.4	101
2953.74	129
2954.09	121
2954.44	143
2954.78	136.6
2955.13	189
2955.48	101
2955.82	157
2956.17	95
2956.52	129
2956.86	129
2957.21	103
2957.56	129
2957.9	163
2958.25	115
2958.6	117
2958.94	119
2959.29	109
2959.64	155
2959.98	95
2960.33	119
2960.68	155
2961.02	115
2961.37	129
2961.72	153
2962.06	101
2962.41	145
2962.76	107
2963.1	127
2963.45	141
2963.79	111
2964.14	117
2964.49	145
2964.83	111
2965.18	131
2965.52	147
2965.87	115
2966.22	169
2966.56	85
2966.91	145
2967.25	117
2967.6	155
2967.95	121
2968.29	135
2968.64	109
2968.98	95
2969.33	131
2969.68	111
2970.02	173
2970.37	61
2970.71	141
2971.06	117
2971.4	131
2971.75	121
2972.1	127
2972.44	101
2972.79	133
2973.13	153
2973.48	97
2973.82	169
2974.17	69
2974.51	183
2974.86	109
2975.21	133
2975.55	107
2975.9	121
2976.24	119
2976.59	119
2976.93	137
2977.28	121
2977.62	163
2977.97	97
2978.31	159
2978.66	119
2979	141
2979.35	115
2979.69	129
2980.04	113
2980.38	139
2980.73	143
2981.07	125
2981.42	147
2981.76	57
2982.11	161
2982.45	121
2982.8	121
2983.14	109
2983.49	105
2983.83	119
2984.18	133
2984.52	129
2984.87	117
2985.21	139
2985.56	93
2985.9	149
2986.25	129
2986.59	135
2986.94	133
2987.28	107
2987.62	141
2987.97	135
2988.31	111
2988.66	155
2989	97
2989.35	139
2989.69	125
2990.03	147
2990.38	105
2990.72	123
2991.07	105
2991.41	139
2991.76	145
2992.1	87
2992.44	157
2992.79	89
2993.13	137
2993.48	111
2993.82	123
2994.17	113
2994.51	129
2994.85	97
2995.2	123
2995.54	157
2995.89	81
2996.23	159
2996.57	85
2996.92	143
2997.26	103
2997.6	141
2997.95	107
2998.29	139
2998.64	101
2998.98	153
2999.32	133
2999.67	81
