#Acq. time (s)=	30
#Accumulations=	1
#Range (cm-¹)=	1050...3000 (30 s) 
#Windows=	6
#Auto scanning=	Off
#Autofocus=	Off
#AutoExposure=	Off
#Spike filter=	Off
#Delay time (s)=	0
#Binning=	1
#Readout mode=	Signal
#DeNoise=	Off
#ICS correction=	Off
#Dark correction=	Off
#Inst. Process=	Off
#Detector Gain=	High Sensitivity
#Detector ADC=	45 kHz       
#Detector temperature (°C)=	-60.1
#Instrument=	LabRAM
#Detector=	Syncerity
#Objective=	x50LWD
#Grating=	1800
#Filter=	25%
#Laser (nm)=	532
#Hole=	100
#E-Cal_Neon=	0
#StageXY=	Marzhauser
#StageZ=	Marzhauser
#X (µm)=	0
#Y (µm)=	0
#Z (µm)=	-1678.85
#Spectral res.(cm-¹)=	1.9
#Full time(mm:ss)=	3:09
#AC=	Not calibrated
#Project=	
#Sample=	
#Site=	
#Title=	Spot 2 500K
#Remark=	
#Date=	19.02.2026 15:20
#Acquired=	19.02.2026 15:20:15
#Edit:Spike=	19.02.2026 15:30:20
#AxisType[0]=Intens
#AxisUnit[0]=Cnt
#AxisType[1]=Spectr
#AxisUnit[1]=1/cm
1050.13	151
1050.59	59
1051.05	151
1051.51	107
1051.97	147
1052.44	93
1052.9	149
1053.36	93
1053.82	107
1054.28	123
1054.74	99
1055.2	175
1055.67	51
1056.13	159
1056.59	115
1057.05	121
1057.51	115
1057.97	113
1058.43	105
1058.89	117
1059.36	127
1059.82	97
1060.28	119
1060.74	71
1061.2	137
1061.66	107
1062.12	117
1062.58	133
1063.04	91
1063.5	137
1063.96	143
1064.43	105
1064.89	131
1065.35	107
1065.81	87
1066.27	141
1066.73	123
1067.19	115
1067.65	117
1068.11	111
1068.57	125
1069.03	131
1069.49	93
1069.95	145
1070.41	69
1070.87	101
1071.33	125
1071.79	135
1072.25	137
1072.71	105
1073.17	113
1073.63	131
1074.09	137
1074.55	83
1075.01	149
1075.47	53
1075.93	125
1076.39	99
1076.85	111
1077.31	141
1077.77	85
1078.23	121
1078.69	119
1079.15	133
1079.61	87
1080.07	157
1080.53	77
1080.99	155
1081.45	113
1081.91	121
1082.37	135
1082.83	63
1083.29	147
1083.75	113
1084.21	137
1084.66	115
1085.12	119
1085.58	105
1086.04	151
1086.5	117
1086.96	103
1087.42	131
1087.88	91
1088.34	133
1088.8	131
1089.25	111
1089.71	137
1090.17	87
1090.63	143
1091.09	121
1091.55	89
1092.01	137
1092.47	99
1092.92	121
1093.38	109
1093.84	131
1094.3	115
1094.76	173
1095.22	89
1095.68	129
1096.13	129
1096.59	97
1097.05	153
1097.51	75
1097.97	147
1098.43	117
1098.88	143
1099.34	103
1099.8	131
1100.26	105
1100.72	135
1101.17	133
1101.63	79
1102.09	159
1102.55	85
1103.01	149
1103.46	71
1103.92	117
1104.38	105
1104.84	125
1105.29	119
1105.75	135
1106.21	133
1106.67	93
1107.12	143
1107.58	71
1108.04	145
1108.5	89
1108.95	131
1109.41	145
1109.87	103
1110.33	113
1110.78	141
1111.24	131
1111.7	115
1112.16	105
1112.61	111
1113.07	111
1113.53	113
1113.98	117
1114.44	133
1114.9	93
1115.35	105
1115.81	143
1116.27	97
1116.72	153
1117.18	81
1117.64	129
1118.1	115
1118.55	109
1119.01	115
1119.47	103
1119.92	115
1120.38	97
1120.84	149
1121.29	83
1121.75	161
1122.2	61
1122.66	145
1123.12	121
1123.57	111
1124.03	159
1124.49	79
1124.94	145
1125.4	91
1125.86	153
1126.31	97
1126.77	167
1127.22	83
1127.68	131
1128.14	105
1128.59	109
1129.05	143
1129.5	91
1129.96	127
1130.41	101
1130.87	147
1131.33	111
1131.78	121
1132.24	87
1132.69	145
1133.15	135
1133.61	125
1134.06	137
1134.52	101
1134.97	143
1135.43	109
1135.88	113
1136.34	121
1136.79	105
1137.25	107
1137.7	139
1138.16	113
1138.61	135
1139.07	95
1139.52	105
1139.98	123
1140.43	117
1140.89	113
1141.34	149
1141.8	79
1142.25	109
1142.71	151
1143.16	113
1143.62	141
1144.07	75
1144.53	137
1144.98	101
1145.44	127
1145.89	113
1146.35	135
1146.8	107
1147.26	99
1147.71	161
1148.16	105
1148.62	169
1149.07	41
1149.53	167
1149.98	107
1150.44	143
1150.89	125
1151.35	109
1151.8	117
1152.25	101
1152.71	139
1153.16	89
1153.62	149
1154.07	67
1154.52	143
1154.98	113
1155.43	101
1155.89	135
1156.34	99
1156.79	123
1157.25	141
1157.7	137
1158.16	123
1158.61	93
1159.06	89
1159.52	133
1159.97	111
1160.42	143
1160.88	129
1161.33	111
1161.78	121
1162.24	117
1162.69	103
1163.14	159
1163.6	107
1164.05	119
1164.5	125
1164.96	127
1165.41	143
1165.86	93
1166.32	119
1166.77	131
1167.22	153
1167.68	101
1168.13	143
1168.58	83
1169.04	131
1169.49	129
1169.94	111
1170.39	143
1170.85	73
1171.3	139
1171.75	115
1172.2	145
1172.66	91
1173.11	135
1173.56	89
1174.01	123
1174.47	127
1174.92	99
1175.37	167
1175.82	71
1176.28	157
1176.73	99
1177.18	129
1177.63	111
1178.09	123
1178.54	127
1178.99	137
1179.44	129
1179.89	103
1180.35	137
1180.8	77
1181.25	139
1181.7	117
1182.15	105
1182.61	115
1183.06	99
1183.51	131
1183.96	135
1184.41	103
1184.87	137
1185.32	83
1185.77	109
1186.22	125
1186.67	127
1187.12	105
1187.58	113
1188.03	99
1188.48	147
1188.93	139
1189.38	91
1189.83	167
1190.28	83
1190.73	155
1191.19	123
1191.64	131
1192.09	127
1192.54	99
1192.99	117
1193.44	117
1193.89	159
1194.34	79
1194.8	163
1195.25	49
1195.7	135
1196.15	119
1196.6	129
1197.05	125
1197.5	79
1197.95	127
1198.4	119
1198.85	141
1199.3	81
1199.75	125
1200.2	77
1200.66	151
1201.11	109
1201.56	125
1202.01	147
1202.46	89
1202.91	141
1203.36	119
1203.81	127
1204.26	105
1204.71	119
1205.16	113
1205.61	137
1206.06	105
1206.51	121
1206.96	149
1207.41	99
1207.86	113
1208.31	149
1208.76	99
1209.21	131
1209.66	83
1210.11	119
1210.56	119
1211.01	93
1211.46	121
1211.91	95
1212.36	119
1212.81	95
1213.26	127
1213.71	107
1214.16	151
1214.61	83
1215.05	133
1215.51	123
1215.95	99
1216.4	185
1216.85	87
1217.3	157
1217.75	99
1218.2	167
1218.65	105
1219.1	135
1219.55	117
1220	133
1220.45	153
1220.9	79
1221.34	163
1221.79	81
1222.24	143
1222.69	85
1223.14	125
1223.59	113
1224.04	121
1224.49	105
1224.94	127
1225.38	113
1225.83	89
1226.28	145
1226.73	87
1227.18	139
1227.63	111
1228.07	135
1228.52	149
1228.97	107
1229.42	105
1229.87	135
1230.32	115
1230.76	127
1231.21	129
1231.66	113
1232.11	153
1232.56	109
1233.01	123
1233.45	131
1233.9	97
1234.35	123
1234.8	157
1235.25	99
1235.69	151
1236.14	101
1236.59	121
1237.04	119
1237.49	101
1237.93	109
1238.38	119
1238.83	101
1239.28	109
1239.72	157
1240.17	89
1240.62	157
1241.07	89
1241.51	143
1241.96	121
1242.41	111
1242.86	149
1243.3	107
1243.75	157
1244.2	99
1244.65	169
1245.09	115
1245.54	151
1245.99	77
1246.44	141
1246.88	129
1247.33	109
1247.78	171
1248.22	71
1248.67	153
1249.12	97
1249.56	129
1250.01	109
1250.46	121
1250.9	93
1251.35	141
1251.8	121
1252.24	95
1252.69	133
1253.14	83
1253.58	157
1254.03	107
1254.48	121
1254.92	143
1255.37	111
1255.82	109
1256.26	141
1256.71	141
1257.15	127
1257.6	125
1258.05	95
1258.49	119
1258.94	107
1259.39	121
1259.83	133
1260.28	115
1260.72	109
1261.17	165
1261.62	97
1262.06	151
1262.51	79
1262.95	111
1263.4	123
1263.85	133
1264.29	93
1264.74	123
1265.18	103
1265.63	113
1266.07	157
1266.52	91
1266.97	171
1267.41	79
1267.86	157
1268.3	117
1268.75	149
1269.19	135
1269.64	109
1270.08	123
1270.53	109
1270.97	121
1271.42	109
1271.86	161
1272.31	53
1272.76	159
1273.2	135
1273.64	115
1274.09	141
1274.53	97
1274.98	117
1275.42	101
1275.87	149
1276.31	127
1276.76	133
1277.2	85
1277.65	149
1278.09	125
1278.54	125
1278.98	125
1279.43	97
1279.87	121
1280.32	145
1280.76	121
1281.21	145
1281.65	73
1282.09	113
1282.54	129
1282.98	121
1283.43	133
1283.87	101
1284.32	109
1284.76	119
1285.21	137
1285.65	81
1286.09	159
1286.54	87
1286.98	113
1287.42	143
1287.87	105
1288.31	169
1288.76	71
1289.2	141
1289.64	101
1290.09	137
1290.53	105
1290.98	141
1291.42	81
1291.86	153
1292.31	141
1292.75	111
1293.19	157
1293.64	67
1294.08	141
1294.53	117
1294.97	151
1295.41	93
1295.85	127
1296.3	109
1296.74	153
1297.19	115
1297.63	109
1298.07	139
1298.51	75
1298.96	163
1299.4	111
1299.84	123
1300.29	113
1300.73	101
1301.17	107
1301.62	157
1302.06	113
1302.5	121
1302.94	125
1303.39	89
1303.83	135
1304.27	113
1304.72	115
1305.16	119
1305.6	97
1306.04	155
1306.49	135
1306.93	109
1307.37	147
1307.81	95
1308.26	133
1308.7	121
1309.14	143
1309.58	129
1310.03	117
1310.47	113
1310.91	129
1311.35	149
1311.8	91
1312.24	171
1312.68	53
1313.12	149
1313.56	109
1314	129
1314.45	125
1314.89	97
1315.33	155
1315.77	113
1316.22	133
1316.66	69
1317.1	165
1317.54	107
1317.98	143
1318.43	127
1318.87	119
1319.31	157
1319.75	89
1320.19	133
1320.63	121
1321.07	125
1321.51	97
1321.96	125
1322.4	115
1322.84	163
1323.28	111
1323.72	123
1324.16	149
1324.6	93
1325.05	145
1325.49	115
1325.93	133
1326.37	127
1326.81	127
1327.25	131
1327.69	121
1328.13	105
1328.57	149
1329.02	121
1329.45	105
1329.9	133
1330.34	153
1330.78	119
1331.22	133
1331.66	101
1332.1	133
1332.54	145
1332.98	137
1333.42	165
1333.86	113
1334.3	145
1334.74	137
1335.18	151
1335.62	103
1336.07	135
1336.5	103
1336.95	137
1337.39	135
1337.83	81
1338.27	179
1338.71	81
1339.15	173
1339.59	105
1340.03	139
1340.47	145
1340.91	99
1341.35	115
1341.79	109
1342.23	145
1342.67	67
1343.11	171
1343.55	79
1343.99	165
1344.43	117
1344.86	119
1345.31	157
1345.74	103
1346.18	143
1346.62	131
1347.06	141
1347.5	125
1347.94	129
1348.38	107
1348.82	153
1349.26	115
1349.7	109
1350.14	147
1350.58	111
1351.02	141
1351.46	147
1351.9	115
1352.33	145
1352.77	95
1353.21	135
1353.65	129
1354.09	109
1354.53	139
1354.97	131
1355.41	117
1355.85	119
1356.29	141
1356.72	87
1357.16	159
1357.6	99
1358.04	145
1358.48	121
1358.92	119
1359.36	163
1359.79	111
1360.23	141
1360.67	99
1361.11	149
1361.55	89
1361.99	155
1362.43	79
1362.87	153
1363.3	115
1363.74	107
1364.18	145
1364.62	87
1365.06	155
1365.49	83
1365.93	153
1366.37	103
1366.81	143
1367.25	89
1367.68	145
1368.12	141
1368.56	97
1369	155
1369.44	95
1369.87	121
1370.31	109
1370.75	117
1371.19	139
1371.62	105
1372.06	103
1372.5	117
1372.94	117
1373.37	147
1373.81	117
1374.25	125
1374.69	111
1375.12	133
1375.56	105
1376	155
1376.44	91
1376.87	103
1377.31	133
1377.75	117
1378.19	151
1378.62	71
1379.06	125
1379.5	101
1379.93	149
1380.37	107
1380.81	121
1381.25	109
1381.68	107
1382.12	135
1382.56	89
1382.99	145
1383.43	55
1383.87	153
1384.3	107
1384.74	123
1385.18	117
1385.61	97
1386.05	119
1386.49	121
1386.92	135
1387.36	103
1387.8	141
1388.23	65
1388.67	141
1389.1	105
1389.54	121
1389.98	121
1390.41	103
1390.85	117
1391.29	117
1391.72	113
1392.16	127
1392.59	121
1393.03	89
1393.47	155
1393.9	121
1394.34	109
1394.77	125
1395.21	103
1395.65	133
1396.08	141
1396.52	99
1396.95	139
1397.39	65
1397.82	137
1398.26	123
1398.7	127
1399.13	125
1399.57	95
1400	121
1400.44	121
1400.87	159
1401.31	87
1401.74	179
1402.18	75
1402.62	155
1403.05	131
1403.49	117
1403.92	145
1404.36	89
1404.79	143
1405.23	113
1405.66	151
1406.1	77
1406.53	155
1406.97	81
1407.4	137
1407.84	121
1408.27	111
1408.71	155
1409.14	55
1409.58	139
1410.01	125
1410.45	151
1410.88	109
1411.31	125
1411.75	99
1412.18	161
1412.62	117
1413.05	113
1413.49	135
1413.92	99
1414.36	189
1414.79	119
1415.23	135
1415.66	119
1416.1	109
1416.53	125
1416.96	137
1417.4	121
1417.83	127
1418.27	113
1418.7	89
1419.13	143
1419.57	123
1420	113
1420.44	115
1420.87	97
1421.3	125
1421.74	121
1422.17	91
1422.61	149
1423.04	95
1423.47	125
1423.91	113
1424.34	135
1424.77	109
1425.21	119
1425.64	97
1426.07	117
1426.51	141
1426.94	83
1427.38	161
1427.81	59
1428.24	145
1428.68	109
1429.11	129
1429.54	121
1429.98	93
1430.41	111
1430.84	121
1431.28	163
1431.71	67
1432.14	157
1432.57	65
1433.01	155
1433.44	101
1433.87	145
1434.31	147
1434.74	75
1435.17	133
1435.61	113
1436.04	127
1436.47	93
1436.9	141
1437.34	93
1437.77	135
1438.2	115
1438.63	121
1439.07	143
1439.5	87
1439.93	141
1440.36	145
1440.8	133
1441.23	101
1441.66	87
1442.09	117
1442.53	135
1442.96	85
1443.39	113
1443.82	113
1444.26	123
1444.69	127
1445.12	133
1445.55	113
1445.98	129
1446.42	81
1446.85	121
1447.28	131
1447.71	81
1448.14	141
1448.57	93
1449.01	147
1449.44	113
1449.87	119
1450.3	89
1450.73	139
1451.17	91
1451.6	129
1452.03	137
1452.46	81
1452.89	161
1453.32	63
1453.76	137
1454.19	105
1454.62	139
1455.05	99
1455.48	127
1455.91	93
1456.34	133
1456.77	141
1457.21	59
1457.64	147
1458.07	65
1458.5	148.578
1458.93	75.3943
1459.36	104.916
1459.79	113.18
1460.22	101.483
1460.65	116.575
1461.08	121.504
1461.52	125.957
1461.95	100.293
1462.38	135.356
1462.81	106.885
1463.24	132.882
1463.67	98.9773
1464.1	99.1157
1464.53	154.619
1464.96	104.054
1465.39	108
1465.82	136.283
1466.25	103.188
1466.68	146.05
1467.11	100.461
1467.54	124.83
1467.98	106.544
1468.41	113.148
1468.84	110.275
1469.27	130.681
1469.7	100.301
1470.13	101.245
1470.56	136.229
1470.99	86.0583
1471.42	145.547
1471.85	79.2984
1472.28	125.708
1472.71	110.72
1473.14	115.749
1473.57	130.776
1474	112.998
1474.43	118.024
1474.86	91.4198
1475.29	150.428
1475.72	89.8868
1476.15	151.251
1476.58	77.402
1477.01	138.012
1477.44	98.5647
1477.87	115.723
1478.3	124.627
1478.72	109.906
1479.15	127.388
1479.58	98.8112
1480.01	141.571
1480.44	87.8222
1480.87	145.586
1481.3	70.4412
1481.73	152.254
1482.16	128.197
1482.59	120.682
1483.02	117.752
1483.45	113.126
1483.88	120.835
1484.31	94.2762
1484.74	140.437
1485.17	111.95
1485.59	140.749
1486.02	93.5766
1486.45	122.185
1486.88	133.098
1487.31	117.744
1487.74	125.602
1488.17	123.168
1488.6	119.866
1489.02	114.039
1489.45	109.436
1489.88	128.178
1490.31	115.663
1490.74	109.231
1491.17	109.994
1491.6	135.146
1492.03	114.418
1492.45	90.4133
1492.88	136.383
1493.31	119.602
1493.74	139.02
1494.17	106.704
1494.6	108.804
1495.02	112.456
1495.45	121.759
1495.88	119.119
1496.31	109.366
1496.74	117.341
1497.17	94.1334
1497.59	126.276
1498.02	120.502
1498.45	128.392
1498.88	110.404
1499.31	102.808
1499.73	125.774
1500.16	115.251
1500.59	139.089
1501.02	129.186
1501.45	106.95
1501.87	105.961
1502.13	85
1502.56	133
1502.99	95
1503.43	167
1503.86	69
1504.29	155
1504.72	95
1505.16	117
1505.59	129
1506.02	75
1506.46	133
1506.89	103
1507.32	113
1507.75	107
1508.19	125
1508.62	65
1509.05	139
1509.49	133
1509.92	103
1510.35	135
1510.78	93
1511.21	145
1511.65	105
1512.08	133
1512.51	125
1512.94	89
1513.38	85
1513.81	131
1514.24	125
1514.67	131
1515.11	97
1515.54	105
1515.97	119
1516.4	135
1516.83	95
1517.27	157
1517.7	79
1518.13	127
1518.56	117
1518.99	117
1519.42	159
1519.86	71
1520.29	133
1520.72	99
1521.15	153
1521.58	89
1522.01	145
1522.45	105
1522.88	113
1523.31	151
1523.74	99
1524.17	177
1524.6	41
1525.04	159
1525.47	107
1525.9	143
1526.33	99
1526.76	119
1527.19	115
1527.62	125
1528.05	135
1528.49	109
1528.92	147
1529.35	71
1529.78	147
1530.21	121
1530.64	127
1531.07	121
1531.5	121
1531.93	129
1532.37	135
1532.8	115
1533.23	117
1533.66	115
1534.09	93
1534.52	157
1534.95	127
1535.38	135
1535.81	101
1536.24	105
1536.67	127
1537.1	147
1537.53	89
1537.96	143
1538.39	101
1538.82	101
1539.26	115
1539.68	111
1540.12	107
1540.55	117
1540.98	103
1541.41	131
1541.84	121
1542.27	87
1542.7	163
1543.13	85
1543.56	171
1543.99	111
1544.42	133
1544.85	109
1545.28	107
1545.71	115
1546.14	121
1546.57	157
1547	73
1547.43	175
1547.86	73
1548.29	165
1548.72	119
1549.14	131
1549.57	143
1550.01	97
1550.43	133
1550.86	127
1551.29	143
1551.72	89
1552.15	139
1552.58	93
1553.01	149
1553.44	119
1553.87	117
1554.3	155
1554.73	89
1555.16	163
1555.59	135
1556.01	125
1556.44	127
1556.87	131
1557.3	129
1557.73	139
1558.16	107
1558.59	127
1559.02	131
1559.45	103
1559.88	127
1560.3	131
1560.73	125
1561.16	137
1561.59	83
1562.02	127
1562.45	131
1562.88	107
1563.31	141
1563.73	121
1564.16	133
1564.59	125
1565.02	145
1565.45	111
1565.88	159
1566.3	103
1566.73	173
1567.16	145
1567.59	109
1568.02	153
1568.45	93
1568.88	173
1569.3	103
1569.73	161
1570.16	137
1570.59	145
1571.01	107
1571.44	151
1571.87	165
1572.3	105
1572.73	199
1573.15	83
1573.58	165
1574.01	117
1574.44	155
1574.87	149
1575.29	131
1575.72	135
1576.15	155
1576.58	157
1577	141
1577.43	191
1577.86	127
1578.29	175
1578.71	149
1579.14	159
1579.57	155
1580	161
1580.42	157
1580.85	193
1581.28	207
1581.71	199
1582.13	195
1582.56	175
1582.99	207
1583.41	169
1583.84	219
1584.27	227
1584.7	233
1585.12	211
1585.55	233
1585.98	213
1586.4	271
1586.83	195
1587.26	237
1587.68	219
1588.11	229
1588.54	251
1588.96	205
1589.39	225
1589.82	205
1590.24	215
1590.67	183
1591.1	237
1591.52	167
1591.95	223
1592.38	203
1592.8	183
1593.23	167
1593.65	165
1594.08	163
1594.51	151
1594.93	175
1595.36	125
1595.79	173
1596.21	99
1596.64	185
1597.06	135
1597.49	129
1597.92	173
1598.34	107
1598.77	151
1599.19	117
1599.62	167
1600.05	133
1600.47	137
1600.9	99
1601.32	173
1601.75	149
1602.18	133
1602.6	157
1603.03	95
1603.45	161
1603.88	129
1604.3	125
1604.73	165
1605.15	115
1605.58	107
1606	139
1606.43	123
1606.86	133
1607.28	119
1607.71	127
1608.13	121
1608.56	149
1608.98	109
1609.41	161
1609.83	95
1610.26	125
1610.68	135
1611.11	101
1611.53	161
1611.96	67
1612.38	151
1612.81	109
1613.23	159
1613.66	99
1614.08	143
1614.51	93
1614.93	119
1615.36	133
1615.78	111
1616.21	187
1616.63	73
1617.06	159
1617.48	113
1617.9	131
1618.33	113
1618.75	149
1619.18	137
1619.6	129
1620.03	115
1620.45	105
1620.88	137
1621.3	65
1621.72	137
1622.15	101
1622.57	137
1623	127
1623.42	99
1623.85	115
1624.27	133
1624.69	131
1625.12	129
1625.54	115
1625.97	85
1626.39	131
1626.81	127
1627.24	123
1627.66	127
1628.08	93
1628.51	145
1628.93	143
1629.36	109
1629.78	143
1630.2	89
1630.63	113
1631.05	121
1631.47	143
1631.9	103
1632.32	117
1632.74	99
1633.17	115
1633.59	157
1634.01	89
1634.44	153
1634.86	75
1635.28	143
1635.71	95
1636.13	129
1636.55	139
1636.98	121
1637.4	127
1637.82	119
1638.25	149
1638.67	61
1639.09	177
1639.51	107
1639.94	145
1640.36	99
1640.78	127
1641.21	123
1641.63	89
1642.05	123
1642.47	123
1642.9	123
1643.32	85
1643.74	139
1644.17	91
1644.59	143
1645.01	115
1645.43	115
1645.86	123
1646.28	95
1646.7	133
1647.12	123
1647.55	123
1647.97	117
1648.39	105
1648.81	107
1649.23	133
1649.66	107
1650.08	117
1650.5	129
1650.92	109
1651.35	119
1651.77	131
1652.19	123
1652.61	135
1653.03	105
1653.45	119
1653.88	137
1654.3	105
1654.72	133
1655.14	105
1655.56	105
1655.99	111
1656.41	145
1656.83	95
1657.25	141
1657.67	75
1658.09	129
1658.52	129
1658.94	91
1659.36	151
1659.78	69
1660.2	145
1660.62	85
1661.04	155
1661.47	81
1661.89	137
1662.31	99
1662.73	125
1663.15	147
1663.57	85
1663.99	179
1664.41	69
1664.83	155
1665.26	97
1665.68	145
1666.1	143
1666.52	119
1666.94	111
1667.36	133
1667.78	129
1668.2	91
1668.62	161
1669.04	83
1669.46	141
1669.89	93
1670.31	127
1670.73	155
1671.15	97
1671.57	111
1671.99	133
1672.41	105
1672.83	107
1673.25	111
1673.67	95
1674.09	145
1674.51	101
1674.93	105
1675.35	135
1675.77	111
1676.19	117
1676.61	145
1677.03	115
1677.45	147
1677.87	93
1678.29	125
1678.71	123
1679.13	115
1679.55	121
1679.97	123
1680.39	101
1680.81	97
1681.23	125
1681.65	97
1682.07	147
1682.49	65
1682.91	133
1683.33	111
1683.75	111
1684.17	133
1684.59	89
1685.01	141
1685.43	85
1685.85	145
1686.27	99
1686.69	169
1687.11	73
1687.53	143
1687.95	109
1688.37	117
1688.78	175
1689.2	81
1689.62	123
1690.04	87
1690.46	145
1690.88	117
1691.3	139
1691.72	93
1692.14	167
1692.56	117
1692.98	97
1693.39	147
1693.81	75
1694.23	127
1694.65	95
1695.07	107
1695.49	141
1695.91	103
1696.33	91
1696.75	127
1697.16	115
1697.58	133
1698	121
1698.42	113
1698.84	113
1699.26	129
1699.68	119
1700.09	149
1700.51	99
1700.93	113
1701.35	135
1701.77	109
1702.19	135
1702.6	81
1703.02	107
1703.44	115
1703.86	135
1704.28	109
1704.69	151
1705.11	89
1705.53	113
1705.95	141
1706.37	105
1706.78	161
1707.2	69
1707.62	141
1708.04	119
1708.46	145
1708.87	101
1709.29	139
1709.71	97
1710.13	113
1710.54	123
1710.96	85
1711.38	165
1711.8	53
1712.22	153
1712.63	123
1713.05	121
1713.47	125
1713.89	125
1714.3	129
1714.72	111
1715.14	137
1715.56	107
1715.97	133
1716.39	69
1716.81	131
1717.22	125
1717.64	117
1718.06	121
1718.48	81
1718.89	113
1719.31	123
1719.73	115
1720.14	141
1720.56	85
1720.98	103
1721.39	145
1721.81	127
1722.23	111
1722.64	117
1723.06	107
1723.48	125
1723.89	133
1724.31	83
1724.73	153
1725.14	77
1725.56	151
1725.98	137
1726.39	135
1726.81	133
1727.23	79
1727.64	125
1728.06	117
1728.48	139
1728.89	79
1729.31	159
1729.72	97
1730.14	151
1730.56	117
1730.97	113
1731.39	129
1731.8	73
1732.22	127
1732.64	117
1733.05	121
1733.47	77
1733.89	149
1734.3	69
1734.72	153
1735.13	99
1735.55	119
1735.96	131
1736.38	77
1736.8	147
1737.21	119
1737.63	145
1738.04	99
1738.46	99
1738.87	101
1739.29	151
1739.71	127
1740.12	97
1740.54	137
1740.95	79
1741.37	137
1741.78	125
1742.2	113
1742.61	127
1743.03	83
1743.44	123
1743.86	133
1744.27	105
1744.69	123
1745.1	121
1745.52	113
1745.93	107
1746.35	147
1746.77	89
1747.18	139
1747.59	93
1748.01	113
1748.42	133
1748.84	89
1749.25	151
1749.67	73
1750.08	121
1750.5	99
1750.91	131
1751.33	117
1751.74	109
1752.16	83
1752.57	129
1752.99	141
1753.4	79
1753.81	165
1754.23	63
1754.64	145
1755.06	81
1755.47	119
1755.89	89
1756.3	109
1756.72	97
1757.13	115
1757.54	135
1757.96	83
1758.37	153
1758.78	81
1759.2	145
1759.61	79
1760.03	123
1760.44	123
1760.86	95
1761.27	121
1761.68	127
1762.1	123
1762.51	89
1762.92	149
1763.34	87
1763.75	135
1764.17	115
1764.58	101
1764.99	131
1765.41	71
1765.82	135
1766.23	123
1766.65	111
1767.06	117
1767.47	107
1767.89	115
1768.3	119
1768.71	109
1769.13	107
1769.54	131
1769.95	99
1770.37	95
1770.78	129
1771.19	109
1771.61	155
1772.02	87
1772.43	135
1772.85	121
1773.26	85
1773.67	127
1774.09	93
1774.5	113
1774.91	87
1775.32	151
1775.74	95
1776.15	163
1776.56	83
1776.97	145
1777.39	121
1777.8	111
1778.21	167
1778.62	77
1779.04	129
1779.45	91
1779.86	139
1780.28	111
1780.69	121
1781.1	81
1781.51	131
1781.92	113
1782.34	105
1782.75	139
1783.16	87
1783.57	127
1783.99	79
1784.4	127
1784.81	127
1785.22	103
1785.63	73
1786.05	137
1786.46	99
1786.87	115
1787.28	131
1787.69	95
1788.11	133
1788.52	105
1788.93	107
1789.34	127
1789.75	107
1790.17	91
1790.58	103
1790.99	113
1791.4	129
1791.81	105
1792.22	111
1792.63	127
1793.05	135
1793.46	105
1793.87	151
1794.28	79
1794.69	99
1795.1	133
1795.52	81
1795.93	155
1796.34	53
1796.75	141
1797.16	99
1797.57	127
1797.98	103
1798.39	121
1798.81	97
1799.22	113
1799.63	137
1800.04	83
1800.45	163
1800.86	35
1801.27	147
1801.68	113
1802.09	133
1802.5	119
1802.91	103
1803.32	109
1803.73	109
1804.15	141
1804.56	103
1804.97	133
1805.38	71
1805.79	161
1806.2	109
1806.61	109
1807.02	125
1807.43	103
1807.84	111
1808.25	121
1808.66	113
1809.07	105
1809.48	95
1809.89	75
1810.3	131
1810.71	101
1811.12	109
1811.53	113
1811.94	91
1812.35	123
1812.76	129
1813.17	97
1813.58	135
1813.99	91
1814.4	123
1814.81	123
1815.22	117
1815.63	123
1816.04	99
1816.45	121
1816.86	111
1817.27	133
1817.68	91
1818.09	159
1818.5	77
1818.91	125
1819.32	115
1819.73	137
1820.14	123
1820.55	63
1820.96	117
1821.37	103
1821.78	165
1822.19	85
1822.6	163
1823.01	67
1823.42	123
1823.82	135
1824.23	109
1824.64	159
1825.05	53
1825.46	151
1825.87	95
1826.28	131
1826.69	85
1827.1	115
1827.51	95
1827.91	137
1828.32	121
1828.73	97
1829.14	143
1829.55	71
1829.96	147
1830.37	97
1830.78	117
1831.18	103
1831.59	97
1832	111
1832.41	129
1832.82	89
1833.23	125
1833.64	117
1834.05	93
1834.45	133
1834.86	103
1835.27	119
1835.68	111
1836.09	93
1836.49	119
1836.9	133
1837.31	103
1837.72	139
1838.13	95
1838.53	119
1838.94	139
1839.35	139
1839.76	101
1840.17	125
1840.58	101
1840.98	129
1841.39	129
1841.8	71
1842.21	159
1842.61	71
1843.02	141
1843.43	111
1843.84	121
1844.25	117
1844.65	103
1845.06	97
1845.47	105
1845.88	149
1846.28	69.1316
1846.69	168.024
1847.1	64.1662
1847.51	149.591
1847.91	94.0377
1848.32	110.311
1848.73	134.179
1849.14	83.8875
1849.54	136.55
1849.95	104.749
1850.36	145.618
1850.77	91.1541
1851.17	135.024
1851.58	97.6458
1851.99	132.356
1852.39	110.322
1852.8	109.162
1853.21	131
1853.62	91.8953
1854.02	125.033
1854.43	121.065
1854.84	121.632
1855.24	101.511
1855.65	113.707
1856.06	103.521
1856.46	130.85
1856.87	109.827
1857.28	107.233
1857.68	121.139
1858.09	106.708
1858.5	98.4563
1858.9	118.486
1859.31	84.787
1859.72	121.543
1860.12	122.516
1860.53	104.409
1860.94	147.621
1861.34	88.8663
1861.75	117.071
1862.15	112.911
1862.56	109.515
1862.97	105.879
1863.37	120.285
1863.78	111.893
1864.19	113.839
1864.59	119.712
1865	117.299
1865.4	135.245
1865.81	112.44
1866.22	125.555
1866.62	91.8367
1867.03	107.952
1867.43	101.889
1867.84	105.441
1868.25	110.13
1868.65	116.715
1869.06	109.303
1869.46	105.804
1869.87	114.57
1870.28	96.4607
1870.68	134.878
1871.09	111.198
1871.49	123.697
1871.9	100.562
1872.3	118.1
1872.71	107.233
1873.12	125.733
1873.52	107.519
1873.93	104.498
1874.33	108.847
1874.74	114.08
1875.14	134.912
1875.55	115.591
1875.95	112.042
1876.36	105.543
1876.76	120.364
1877.17	124.044
1877.57	122.373
1877.98	120.425
1878.38	109.359
1878.79	114.409
1879.19	116.518
1879.6	103.74
1880	106.854
1880.41	112.315
1880.81	116.774
1881.22	109.164
1881.63	112.213
1882.03	107.637
1882.43	121.258
1882.84	89.2417
1883.24	107.094
1883.65	117.411
1884.05	103.021
1884.46	113.001
1884.86	78.2794
1885.27	121.859
1885.67	120.619
1886.08	127.966
1886.48	90.3225
1886.89	119.28
1887.29	84.1692
1887.69	116.364
1888.1	119.568
1888.5	101.365
1888.85	171
1889.26	51
1889.67	145
1890.08	103
1890.49	153
1890.9	101
1891.3	125
1891.71	85
1892.12	129
1892.53	135
1892.94	91
1893.35	165
1893.76	53
1894.17	153
1894.58	101
1894.99	115
1895.4	107
1895.81	91
1896.22	97
1896.62	133
1897.03	127
1897.44	109
1897.85	129
1898.26	79
1898.67	147
1899.08	99
1899.49	121
1899.9	113
1900.3	93
1900.71	129
1901.12	141
1901.53	99
1901.94	107
1902.35	115
1902.75	77
1903.16	135
1903.57	143
1903.98	111
1904.39	105
1904.8	97
1905.21	131
1905.61	133
1906.02	101
1906.43	147
1906.84	91
1907.25	125
1907.66	113
1908.06	133
1908.47	103
1908.88	111
1909.29	89
1909.7	115
1910.1	129
1910.51	63
1910.92	177
1911.33	61
1911.73	137
1912.14	97
1912.55	125
1912.96	109
1913.37	111
1913.77	93
1914.18	127
1914.59	127
1915	85
1915.4	153
1915.81	73
1916.22	151
1916.63	85
1917.03	129
1917.44	119
1917.85	75
1918.26	111
1918.66	129
1919.07	117
1919.48	101
1919.89	155
1920.29	95
1920.7	135
1921.11	101
1921.51	103
1921.92	133
1922.33	99
1922.73	115
1923.14	123
1923.55	99
1923.96	125
1924.36	101
1924.77	105
1925.18	121
1925.58	81
1925.99	105
1926.4	141
1926.8	105
1927.21	117
1927.62	129
1928.02	95
1928.43	129
1928.84	89
1929.24	127
1929.65	111
1930.06	121
1930.46	131
1930.87	129
1931.28	109
1931.68	105
1932.09	143
1932.49	83
1932.9	161
1933.31	55
1933.71	151
1934.12	103
1934.53	113
1934.93	143
1935.34	105
1935.74	115
1936.15	91
1936.56	151
1936.96	95
1937.37	151
1937.78	69
1938.18	147
1938.59	113
1938.99	131
1939.4	137
1939.8	97
1940.21	127
1940.62	97
1941.02	131
1941.43	109
1941.83	141
1942.24	85
1942.64	145
1943.05	115
1943.45	117
1943.86	117
1944.27	95
1944.67	121
1945.08	97
1945.48	115
1945.89	119
1946.29	93
1946.7	79
1947.1	139
1947.51	111
1947.91	101
1948.32	117
1948.72	91
1949.13	117
1949.53	129
1949.94	101
1950.34	159
1950.75	75
1951.15	103
1951.56	135
1951.96	133
1952.37	123
1952.77	87
1953.18	99
1953.58	115
1953.99	133
1954.39	77
1954.8	177
1955.2	71
1955.61	127
1956.01	109
1956.42	107
1956.82	151
1957.23	61
1957.63	125
1958.03	115
1958.44	145
1958.84	75
1959.25	147
1959.65	67
1960.06	133
1960.46	119
1960.86	121
1961.27	151
1961.67	37
1962.08	135
1962.48	113
1962.89	145
1963.29	95
1963.69	135
1964.1	97
1964.5	147
1964.91	121
1965.31	97
1965.71	145
1966.12	65
1966.52	137
1966.93	101
1967.33	121
1967.73	103
1968.14	119
1968.54	115
1968.94	133
1969.35	113
1969.75	119
1970.15	129
1970.56	73
1970.96	143
1971.37	101
1971.77	119
1972.17	121
1972.58	89
1972.98	121
1973.38	129
1973.79	103
1974.19	133
1974.59	107
1974.99	99
1975.4	119
1975.8	123
1976.21	107
1976.61	133
1977.01	97
1977.41	133
1977.82	117
1978.22	93
1978.62	145
1979.03	57
1979.43	163
1979.83	115
1980.24	135
1980.64	107
1981.04	127
1981.44	109
1981.85	131
1982.25	147
1982.65	61
1983.05	149
1983.46	61
1983.86	157
1984.26	99
1984.66	129
1985.07	119
1985.47	105
1985.87	109
1986.27	117
1986.68	115
1987.08	65
1987.48	155
1987.88	97
1988.29	153
1988.69	95
1989.09	123
1989.49	123
1989.89	91
1990.3	111
1990.7	133
1991.1	123
1991.5	101
1991.9	135
1992.31	83
1992.71	147
1993.11	79
1993.51	111
1993.91	127
1994.32	87
1994.72	113
1995.12	139
1995.52	105
1995.92	123
1996.32	117
1996.73	115
1997.13	131
1997.53	113
1997.93	127
1998.33	139
1998.73	115
1999.14	115
1999.54	149
1999.94	99
2000.34	163
2000.74	79
2001.14	139
2001.54	109
2001.94	111
2002.35	129
2002.75	115
2003.15	117
2003.55	97
2003.95	143
2004.35	95
2004.75	165
2005.15	71
2005.55	143
2005.96	103
2006.36	105
2006.76	135
2007.16	97
2007.56	125
2007.96	81
2008.36	139
2008.76	103
2009.16	175
2009.56	81
2009.96	145
2010.36	115
2010.76	131
2011.16	143
2011.57	103
2011.97	135
2012.37	103
2012.77	131
2013.17	127
2013.57	129
2013.97	73
2014.37	147
2014.77	125
2015.17	133
2015.57	137
2015.97	89
2016.37	115
2016.77	113
2017.17	119
2017.57	135
2017.97	113
2018.37	97
2018.77	125
2019.17	105
2019.57	117
2019.97	99
2020.37	97
2020.77	129
2021.17	131
2021.57	101
2021.97	175
2022.37	93
2022.77	145
2023.17	129
2023.57	131
2023.97	119
2024.37	95
2024.77	115
2025.17	125
2025.57	147
2025.97	105
2026.37	171
2026.77	65
2027.16	137
2027.56	123
2027.96	113
2028.36	143
2028.76	65
2029.16	139
2029.56	109
2029.96	145
2030.36	69
2030.76	149
2031.16	77
2031.56	153
2031.96	125
2032.35	91
2032.75	141
2033.15	67
2033.55	147
2033.95	109
2034.35	157
2034.75	93
2035.15	121
2035.54	107
2035.94	139
2036.34	123
2036.74	117
2037.14	143
2037.54	85
2037.94	141
2038.34	113
2038.74	101
2039.13	109
2039.53	101
2039.93	127
2040.33	139
2040.73	85
2041.12	117
2041.52	117
2041.92	101
2042.32	131
2042.72	111
2043.12	125
2043.51	123
2043.91	107
2044.31	127
2044.71	121
2045.11	101
2045.51	137
2045.9	89
2046.3	129
2046.7	133
2047.1	123
2047.49	97
2047.89	139
2048.29	99
2048.69	137
2049.09	125
2049.48	81
2049.88	145
2050.28	69
2050.68	149
2051.07	111
2051.47	143
2051.87	99
2052.27	123
2052.67	107
2053.06	121
2053.46	131
2053.86	57
2054.26	167
2054.65	63
2055.05	145
2055.45	95
2055.85	115
2056.24	113
2056.64	101
2057.04	115
2057.43	125
2057.83	137
2058.23	67
2058.62	161
2059.02	69
2059.42	129
2059.82	87
2060.21	139
2060.61	147
2061.01	93
2061.4	123
2061.8	153
2062.2	137
2062.59	93
2062.99	137
2063.39	85
2063.79	137
2064.18	93
2064.58	117
2064.97	135
2065.37	105
2065.77	109
2066.16	123
2066.56	117
2066.96	127
2067.35	91
2067.75	119
2068.15	127
2068.54	111
2068.94	111
2069.34	147
2069.73	105
2070.13	137
2070.52	119
2070.92	95
2071.32	151
2071.71	83
2072.11	129
2072.51	133
2072.9	119
2073.3	115
2073.69	125
2074.09	119
2074.49	101
2074.88	135
2075.28	89
2075.67	165
2076.07	71
2076.47	135
2076.86	111
2077.26	109
2077.65	137
2078.05	85
2078.44	129
2078.84	105
2079.23	137
2079.63	95
2080.03	151
2080.42	87
2080.82	153
2081.21	115
2081.61	101
2082	149
2082.4	83
2082.79	135
2083.19	103
2083.58	139
2083.98	97
2084.37	131
2084.77	79
2085.16	149
2085.56	117
2085.95	127
2086.35	147
2086.74	97
2087.14	103
2087.53	111
2087.93	123
2088.32	139
2088.72	99
2089.11	67
2089.51	131
2089.9	111
2090.3	127
2090.69	121
2091.09	105
2091.48	129
2091.88	131
2092.27	111
2092.67	137
2093.06	77
2093.46	111
2093.85	121
2094.25	125
2094.64	155
2095.03	83
2095.43	117
2095.82	141
2096.22	133
2096.61	87
2097.01	153
2097.4	73
2097.79	111
2098.19	111
2098.58	97
2098.98	151
2099.37	71
2099.76	139
2100.16	103
2100.55	137
2100.95	87
2101.34	145
2101.73	75
2102.13	123
2102.52	139
2102.92	111
2103.31	137
2103.7	45
2104.1	127
2104.49	107
2104.88	145
2105.28	89
2105.67	111
2106.07	91
2106.46	141
2106.85	123
2107.25	123
2107.64	147
2108.03	67
2108.43	141
2108.82	113
2109.21	119
2109.61	101
2110	119
2110.39	113
2110.79	127
2111.18	113
2111.57	113
2111.97	123
2112.36	97
2112.75	137
2113.15	109
2113.54	113
2113.93	103
2114.32	93
2114.72	121
2115.11	139
2115.5	93
2115.9	151
2116.29	77
2116.68	111
2117.08	129
2117.47	147
2117.86	89
2118.25	139
2118.65	97
2119.04	131
2119.43	129
2119.82	85
2120.22	153
2120.61	79
2121	149
2121.39	121
2121.79	137
2122.18	91
2122.57	119
2122.96	101
2123.36	109
2123.75	131
2124.14	73
2124.53	167
2124.93	79
2125.32	155
2125.71	105
2126.1	119
2126.49	115
2126.89	93
2127.28	117
2127.67	117
2128.06	127
2128.45	83
2128.85	149
2129.24	77
2129.63	141
2130.02	97
2130.41	125
2130.81	129
2131.2	93
2131.59	139
2131.98	133
2132.37	127
2132.76	91
2133.16	113
2133.55	85
2133.94	145
2134.33	101
2134.72	107
2135.11	143
2135.5	85
2135.9	111
2136.29	121
2136.68	113
2137.07	127
2137.46	95
2137.85	111
2138.24	133
2138.63	95
2139.03	111
2139.42	131
2139.81	99
2140.2	127
2140.59	127
2140.98	93
2141.37	161
2141.76	107
2142.15	149
2142.55	131
2142.94	121
2143.33	125
2143.72	113
2144.11	117
2144.5	107
2144.89	155
2145.28	79
2145.67	163
2146.06	57
2146.45	135
2146.84	125
2147.23	99
2147.62	131
2148.02	87
2148.4	139
2148.8	75
2149.19	125
2149.58	89
2149.97	159
2150.36	65
2150.75	137
2151.14	113
2151.53	97
2151.92	157
2152.31	73
2152.7	135
2153.09	87
2153.48	143
2153.87	93
2154.26	139
2154.65	89
2155.04	141
2155.43	97
2155.82	95
2156.21	127
2156.6	83
2156.99	129
2157.38	111
2157.77	141
2158.16	111
2158.55	93
2158.94	65
2159.33	113
2159.72	111
2160.11	121
2160.5	113
2160.89	91
2161.28	121
2161.66	109
2162.05	119
2162.44	129
2162.83	79
2163.22	93
2163.61	129
2164	135
2164.39	135
2164.78	85
2165.17	127
2165.56	113
2165.95	141
2166.34	89
2166.73	153
2167.11	73
2167.5	97
2167.89	109
2168.28	107
2168.67	151
2169.06	43
2169.45	139
2169.84	101
2170.23	131
2170.62	83
2171	133
2171.39	75
2171.78	107
2172.17	121
2172.56	109
2172.95	163
2173.34	45
2173.73	147
2174.11	119
2174.5	165
2174.89	105
2175.28	107
2175.67	83
2176.06	129
2176.45	127
2176.83	111
2177.22	145
2177.61	57
2178	143
2178.39	105
2178.78	113
2179.16	117
2179.55	107
2179.94	107
2180.33	127
2180.72	113
2181.1	113
2181.49	113
2181.88	87
2182.27	113
2182.66	99
2183.04	109
2183.43	113
2183.82	95
2184.21	133
2184.6	121
2184.98	109
2185.37	147
2185.76	105
2186.15	95
2186.53	125
2186.92	133
2187.31	123
2187.7	129
2188.08	89
2188.47	123
2188.86	131
2189.25	81
2189.63	177
2190.02	63
2190.41	127
2190.8	111
2191.18	127
2191.57	119
2191.96	95
2192.34	133
2192.73	123
2193.12	129
2193.51	67
2193.89	153
2194.28	73
2194.67	135
2195.06	81
2195.44	107
2195.83	129
2196.22	69
2196.6	133
2196.99	133
2197.38	135
2197.76	71
2198.15	165
2198.54	85
2198.92	137
2199.31	103
2199.7	97
2200.08	131
2200.47	75
2200.86	127
2201.24	117
2201.63	143
2202.02	81
2202.4	133
2202.79	69
2203.18	135
2203.56	89
2203.95	123
2204.34	125
2204.72	87
2205.11	123
2205.49	121
2205.88	97
2206.27	93
2206.65	107
2207.04	97
2207.43	125
2207.81	81
2208.2	111
2208.58	123
2208.97	101
2209.36	113
2209.74	131
2210.13	111
2210.51	153
2210.9	105
2211.29	113
2211.67	119
2212.06	97
2212.44	119
2212.83	99
2213.21	115
2213.6	107
2213.98	139
2214.37	81
2214.76	133
2215.14	75
2215.53	113
2215.91	142.816
2216.3	85.2214
2216.69	132
2217.07	83.6949
2217.46	120.751
2217.84	103.304
2218.23	136.969
2218.61	79.0213
2219	132.189
2219.38	90.1003
2219.77	123.735
2220.15	120.367
2220.54	71.8666
2220.92	148.099
2221.31	78.549
2221.69	138.178
2222.08	82.1553
2222.46	122.428
2222.85	120.363
2223.23	125.421
2223.62	85.7014
2224	130.742
2224.39	108.375
2224.77	93.582
2225.16	137.325
2225.54	92.8367
2225.93	130.931
2226.31	81.308
2226.7	131.575
2227.08	109.903
2227.47	111.124
2227.85	87.6148
2228.23	125.901
2228.62	109.982
2229	111.336
2229.39	119.26
2229.77	94.567
2230.16	127.432
2230.54	90.213
2230.92	123.992
2231.31	124.08
2231.69	106.301
2232.08	105.679
2232.46	120.832
2232.85	105.921
2233.23	114.431
2233.62	100.407
2234	120.965
2234.38	118.395
2234.77	100.302
2235.15	110.689
2235.54	132.657
2235.92	99.9584
2236.3	107.739
2236.69	121.796
2237.07	111.371
2237.46	127.871
2237.84	83.1438
2238.22	115.198
2238.61	106.265
2238.99	112.654
2239.37	102.524
2239.76	111.077
2240.14	93.6095
2240.53	107.269
2240.91	121.856
2241.29	116.35
2241.68	130.103
2242.06	93.7216
2242.44	118.859
2242.83	119.231
2243.21	114.803
2243.59	115.871
2243.98	103.058
2244.36	97.0817
2244.74	111.118
2245.13	105.118
2245.51	114.095
2245.89	122.011
2246.28	89.7618
2246.66	102.602
2247.04	110.797
2247.43	102.79
2247.81	129.283
2248.19	105.132
2248.58	119.187
2248.96	110.384
2249.34	109.385
2249.73	107.184
2250.11	139.946
2250.49	92.8747
2250.88	122.653
2251.26	123.032
2251.64	100.932
2252.02	159.6
2252.41	74.0871
2252.79	125.77
2252.8	127
2253.18	93
2253.57	123
2253.96	101
2254.35	133
2254.74	85
2255.12	111
2255.51	143
2255.9	83
2256.29	165
2256.67	53
2257.06	145
2257.45	103
2257.84	129
2258.22	117
2258.61	105
2259	107
2259.39	111
2259.77	135
2260.16	83
2260.55	147
2260.94	49
2261.32	135
2261.71	109
2262.1	109
2262.48	105
2262.87	101
2263.26	105
2263.65	119
2264.03	125
2264.42	125
2264.81	135
2265.19	69
2265.58	137
2265.97	113
2266.35	123
2266.74	107
2267.13	89
2267.51	115
2267.9	137
2268.29	107
2268.67	135
2269.06	99
2269.45	77
2269.83	139
2270.22	131
2270.61	123
2270.99	103
2271.38	99
2271.77	121
2272.15	151
2272.54	101
2272.93	133
2273.31	81
2273.7	131
2274.08	125
2274.47	131
2274.86	109
2275.24	113
2275.63	97
2276.02	119
2276.4	119
2276.79	89
2277.17	169
2277.56	87
2277.95	161
2278.33	97
2278.72	121
2279.1	127
2279.49	91
2279.88	107
2280.26	109
2280.65	157
2281.03	75
2281.42	183
2281.8	71
2282.19	135
2282.58	105
2282.96	111
2283.35	121
2283.73	89
2284.12	121
2284.5	117
2284.89	135
2285.28	85
2285.66	145
2286.05	79
2286.43	149
2286.82	105
2287.2	115
2287.59	129
2287.97	83
2288.36	99
2288.74	109
2289.13	119
2289.51	105
2289.9	119
2290.28	111
2290.67	141
2291.05	105
2291.44	109
2291.82	129
2292.21	79
2292.59	111
2292.98	113
2293.36	125
2293.75	125
2294.13	123
2294.52	95
2294.9	137
2295.29	79
2295.67	107
2296.06	135
2296.44	85
2296.83	111
2297.21	125
2297.6	107
2297.98	139
2298.36	91
2298.75	129
2299.13	123
2299.52	113
2299.9	113
2300.29	87
2300.67	113
2301.06	99
2301.44	139
2301.82	103
2302.21	155
2302.59	83
2302.98	145
2303.36	125
2303.75	69
2304.13	157
2304.51	79
2304.9	143
2305.28	77
2305.67	137
2306.05	91
2306.44	153
2306.82	99
2307.2	131
2307.59	131
2307.97	83
2308.35	159
2308.74	67
2309.12	149
2309.51	87
2309.89	129
2310.27	103
2310.66	129
2311.04	103
2311.42	153
2311.81	113
2312.19	89
2312.57	153
2312.96	83
2313.34	143
2313.73	91
2314.11	129
2314.49	137
2314.88	117
2315.26	93
2315.64	135
2316.03	117
2316.41	105
2316.79	133
2317.18	101
2317.56	147
2317.94	115
2318.32	127
2318.71	145
2319.09	93
2319.47	107
2319.86	129
2320.24	127
2320.62	129
2321.01	115
2321.39	89
2321.77	125
2322.15	117
2322.54	111
2322.92	133
2323.3	81
2323.69	109
2324.07	135
2324.45	101
2324.83	137
2325.22	65
2325.6	135
2325.98	117
2326.36	137
2326.75	89
2327.13	137
2327.51	101
2327.89	101
2328.28	137
2328.66	83
2329.04	159
2329.42	55
2329.81	143
2330.19	103
2330.57	149
2330.95	101
2331.33	133
2331.72	95
2332.1	111
2332.48	137
2332.86	87
2333.24	145
2333.63	59
2334.01	133
2334.39	113
2334.77	131
2335.15	107
2335.54	115
2335.92	91
2336.3	131
2336.68	137
2337.06	95
2337.44	147
2337.83	59
2338.21	167
2338.59	115
2338.97	121
2339.35	111
2339.73	103
2340.12	141
2340.5	131
2340.88	141
2341.26	103
2341.64	111
2342.02	83
2342.41	125
2342.79	113
2343.17	113
2343.55	137
2343.93	93
2344.31	131
2344.69	131
2345.07	101
2345.45	143
2345.84	79
2346.22	117
2346.6	127
2346.98	109
2347.36	107
2347.74	111
2348.12	95
2348.5	127
2348.88	141
2349.26	73
2349.65	159
2350.03	57
2350.41	131
2350.79	109
2351.17	117
2351.55	127
2351.93	93
2352.31	117
2352.69	117
2353.07	141
2353.45	65
2353.83	159
2354.21	71
2354.59	149
2354.98	99
2355.35	107
2355.74	117
2356.12	89
2356.5	125
2356.88	133
2357.26	123
2357.64	61
2358.02	149
2358.4	73
2358.78	155
2359.16	87
2359.54	147
2359.92	131
2360.3	85
2360.68	125
2361.06	113
2361.44	149
2361.82	95
2362.2	135
2362.58	83
2362.96	139
2363.34	91
2363.72	125
2364.1	147
2364.48	71
2364.86	135
2365.24	125
2365.62	119
2366	117
2366.38	107
2366.75	123
2367.14	141
2367.51	97
2367.89	121
2368.27	129
2368.65	105
2369.03	125
2369.41	137
2369.79	95
2370.17	149
2370.55	109
2370.93	113
2371.31	135
2371.69	97
2372.07	141
2372.45	117
2372.83	133
2373.2	101
2373.58	139
2373.96	73
2374.34	151
2374.72	91
2375.1	135
2375.48	129
2375.86	111
2376.24	145
2376.61	93
2376.99	121
2377.37	97
2377.75	159
2378.13	99
2378.51	151
2378.89	75
2379.27	165
2379.65	117
2380.02	95
2380.4	147
2380.78	75
2381.16	149
2381.54	87
2381.92	145
2382.3	111
2382.67	127
2383.05	81
2383.43	145
2383.81	119
2384.19	87
2384.57	151
2384.94	91
2385.32	141
2385.7	87
2386.08	143
2386.46	137
2386.83	111
2387.21	103
2387.59	133
2387.97	121
2388.35	111
2388.73	149
2389.1	83
2389.48	139
2389.86	89
2390.24	115
2390.62	143
2390.99	89
2391.37	119
2391.75	131
2392.13	105
2392.5	131
2392.88	107
2393.26	119
2393.64	133
2394.01	97
2394.39	105
2394.77	139
2395.15	97
2395.52	107
2395.9	133
2396.28	111
2396.66	145
2397.04	97
2397.41	125
2397.79	129
2398.17	117
2398.54	123
2398.92	133
2399.3	105
2399.68	97
2400.05	135
2400.43	91
2400.81	157
2401.18	67
2401.56	137
2401.94	107
2402.32	135
2402.69	111
2403.07	135
2403.45	109
2403.82	111
2404.2	143
2404.58	81
2404.95	159
2405.33	51
2405.71	153
2406.09	107
2406.46	125
2406.84	121
2407.22	101
2407.59	113
2407.97	105
2408.34	145
2408.72	107
2409.1	155
2409.47	53
2409.85	143
2410.23	109
2410.6	117
2410.98	167
2411.36	105
2411.73	117
2412.11	111
2412.49	149
2412.86	125
2413.24	133
2413.61	87
2413.99	125
2414.37	117
2414.74	119
2415.12	111
2415.5	87
2415.87	119
2416.25	131
2416.62	127
2417	133
2417.37	85
2417.75	107
2418.13	147
2418.5	127
2418.88	109
2419.25	107
2419.63	95
2420.01	131
2420.38	149
2420.76	99
2421.13	151
2421.51	89
2421.88	119
2422.26	129
2422.64	123
2423.01	119
2423.39	115
2423.76	99
2424.14	129
2424.51	149
2424.89	93
2425.26	163
2425.64	63
2426.01	131
2426.39	117
2426.76	131
2427.14	123
2427.52	81
2427.89	113
2428.26	111
2428.64	151
2429.02	69
2429.39	173
2429.77	63
2430.14	151
2430.52	119
2430.89	131
2431.26	147
2431.64	77
2432.02	131
2432.39	111
2432.77	141
2433.14	87
2433.51	149
2433.89	91
2434.26	151
2434.64	121
2435.01	111
2435.39	161
2435.76	95
2436.14	155
2436.51	127
2436.89	129
2437.26	117
2437.63	141
2438.01	113
2438.38	151
2438.76	89
2439.13	131
2439.51	139
2439.88	105
2440.26	143
2440.63	133
2441	119
2441.38	129
2441.75	119
2442.13	125
2442.5	147
2442.87	121
2443.25	133
2443.62	125
2444	99
2444.37	149
2444.74	159
2445.12	115
2445.49	157
2445.87	103
2446.24	133
2446.61	121
2446.99	111
2447.36	135
2447.73	113
2448.11	111
2448.48	115
2448.86	153
2449.23	93
2449.6	147
2449.98	73
2450.35	151
2450.72	129
2451.1	109
2451.47	135
2451.84	89
2452.22	145
2452.59	97
2452.97	147
2453.34	107
2453.71	139
2454.08	91
2454.46	139
2454.83	135
2455.2	79
2455.58	173
2455.95	81
2456.32	147
2456.7	99
2457.07	145
2457.44	111
2457.82	127
2458.19	99
2458.56	139
2458.93	125
2459.31	89
2459.68	163
2460.05	87
2460.43	129
2460.8	103
2461.17	133
2461.54	123
2461.92	127
2462.29	97
2462.66	165
2463.03	135
2463.41	107
2463.78	153
2464.15	107
2464.52	155
2464.9	107
2465.27	131
2465.64	155
2466.01	105
2466.39	129
2466.76	123
2467.13	125
2467.5	149
2467.88	133
2468.25	95
2468.62	145
2468.99	113
2469.37	123
2469.74	135
2470.11	79
2470.48	85
2470.85	125
2471.22	105
2471.6	173
2471.97	97
2472.34	133
2472.71	117
2473.08	123
2473.46	117
2473.83	139
2474.2	101
2474.57	107
2474.94	129
2475.32	99
2475.69	191
2476.06	59
2476.43	137
2476.8	109
2477.17	129
2477.55	127
2477.92	129
2478.29	113
2478.66	101
2479.03	145
2479.4	105
2479.77	175
2480.15	45
2480.52	121
2480.89	115
2481.26	129
2481.63	125
2482	109
2482.37	109
2482.74	107
2483.12	117
2483.49	93
2483.86	141
2484.23	53
2484.6	165
2484.97	115
2485.34	129
2485.71	115
2486.08	107
2486.46	129
2486.83	115
2487.2	141
2487.57	107
2487.94	127
2488.31	93
2488.68	159
2489.05	123
2489.42	129
2489.79	125
2490.16	83
2490.53	139
2490.9	123
2491.27	117
2491.64	121
2492.01	95
2492.38	93
2492.76	115
2493.13	131
2493.5	95
2493.87	103
2494.24	101
2494.61	109
2494.98	153
2495.35	97
2495.72	169
2496.09	67
2496.46	139
2496.83	121
2497.2	127
2497.57	131
2497.94	117
2498.31	113
2498.68	127
2499.05	143
2499.42	71
2499.79	163
2500.16	67
2500.53	145
2500.9	127
2501.27	115
2501.64	131
2502.01	93
2502.38	137
2502.75	97
2503.12	137
2503.49	73
2503.86	155
2504.23	69
2504.6	161
2504.97	107
2505.34	129
2505.7	117
2506.07	93
2506.44	131
2506.81	119
2507.18	119
2507.55	85
2507.92	163
2508.29	85
2508.66	145
2509.03	99
2509.4	115
2509.77	133
2510.14	87
2510.5	145
2510.88	121
2511.24	119
2511.61	97
2511.98	95
2512.35	97
2512.72	123
2513.09	105
2513.46	115
2513.83	129
2514.2	93
2514.56	105
2514.93	127
2515.3	107
2515.67	129
2516.04	77
2516.41	125
2516.78	121
2517.15	83
2517.51	117
2517.88	119
2518.25	105
2518.62	105
2518.99	149
2519.36	83
2519.73	161
2520.09	79
2520.46	131
2520.83	115
2521.2	103
2521.57	127
2521.94	97
2522.3	119
2522.67	89
2523.04	137
2523.41	89
2523.78	139
2524.15	75
2524.51	137
2524.88	109
2525.25	93
2525.62	157
2525.98	83
2526.35	131
2526.72	107
2527.09	151
2527.46	91
2527.83	127
2528.19	91
2528.56	135
2528.93	117
2529.3	103
2529.66	147
2530.03	71
2530.4	139
2530.77	95
2531.13	139
2531.5	109
2531.87	125
2532.24	95
2532.61	127
2532.97	119
2533.34	95
2533.71	125
2534.07	71
2534.44	129
2534.81	103
2535.18	117
2535.54	113
2535.91	103
2536.28	111
2536.65	113
2537.01	109
2537.38	109
2537.75	123
2538.11	95
2538.48	121
2538.85	115
2539.22	95
2539.58	139
2539.95	93
2540.32	111
2540.68	133
2541.05	97
2541.42	155
2541.78	71
2542.15	127
2542.52	125
2542.89	125
2543.25	115
2543.62	153
2543.99	79
2544.35	105
2544.72	125
2545.08	89
2545.45	143
2545.82	81
2546.19	129
2546.55	99
2546.92	133
2547.28	87
2547.65	117
2548.02	85
2548.38	111
2548.75	135
2549.12	113
2549.48	155
2549.85	65
2550.21	137
2550.58	111
2550.95	127
2551.31	97
2551.68	113
2552.05	101
2552.41	121
2552.78	133
2553.14	91
2553.51	147
2553.88	55
2554.24	151
2554.61	115
2554.97	119
2555.34	125
2555.71	91
2556.07	129
2556.44	127
2556.8	121
2557.17	109
2557.53	125
2557.9	71
2558.27	119
2558.63	131
2559	93
2559.36	115
2559.73	97
2560.09	137
2560.46	135
2560.82	101
2561.19	141
2561.55	85
2561.92	105
2562.29	113
2562.65	133
2563.02	91
2563.38	101
2563.75	105
2564.11	125
2564.48	147
2564.84	91
2565.21	167
2565.57	79.052
2565.94	132.84
2566.3	109.084
2566.67	106.52
2567.03	96.1052
2567.4	94.9062
2567.76	109.181
2568.13	128.701
2568.49	121.914
2568.86	89.6767
2569.22	143.525
2569.59	68.2643
2569.95	139.828
2570.32	105.245
2570.68	121.904
2571.05	110.117
2571.41	112.054
2571.78	109.734
2572.14	131.646
2572.51	121.131
2572.87	83.8939
2573.23	170.21
2573.6	79.6083
2573.96	138.727
2574.33	85.6652
2574.69	125.624
2575.06	113.474
2575.42	93.5861
2575.79	129.899
2576.15	124.178
2576.51	116.12
2576.88	103.876
2577.24	127.039
2577.61	85.2551
2577.97	143.867
2578.34	106.304
2578.7	99.291
2579.06	129.277
2579.43	108.611
2579.79	114.43
2580.16	118.83
2580.52	123.831
2580.88	114.504
2581.25	119.231
2581.61	119.012
2581.98	121.701
2582.34	119.046
2582.7	118.062
2583.07	133.195
2583.43	109.856
2583.8	124.153
2584.16	124.898
2584.52	108.742
2584.89	122.873
2585.25	113.248
2585.61	115.911
2585.98	125.469
2586.34	101.128
2586.7	108.353
2587.07	128.088
2587.43	106.761
2587.8	118.664
2588.16	126.602
2588.52	97.1952
2588.88	121.258
2589.25	105.082
2589.61	134.641
2589.97	125.999
2590.34	107.104
2590.7	122.401
2591.06	121.444
2591.43	122.668
2591.79	103.705
2592.15	152.148
2592.52	106.669
2592.88	127.203
2593.24	107.506
2593.61	132.654
2593.97	149.854
2594.33	90.4795
2594.7	134.714
2595.06	104.67
2595.42	150.234
2595.78	94.5546
2596.15	141.202
2596.51	80.0546
2596.87	120.762
2597.24	119.585
2597.6	108.205
2597.96	148.492
2598.32	69.3977
2598.69	138.86
2599.05	108.335
2599.41	131.092
2599.78	115.187
2600.14	125.773
2600.5	95.9106
2600.86	107.182
2600.95	113
2601.31	143
2601.68	113
2602.05	157
2602.42	71
2602.78	151
2603.15	129
2603.52	143
2603.89	103
2604.25	129
2604.62	97
2604.99	145
2605.35	137
2605.72	127
2606.09	175
2606.46	61
2606.82	157
2607.19	137
2607.56	139
2607.92	107
2608.29	103
2608.66	109
2609.03	133
2609.39	125
2609.76	115
2610.13	157
2610.49	77
2610.86	159
2611.23	127
2611.59	131
2611.96	127
2612.33	105
2612.69	129
2613.06	145
2613.43	115
2613.79	127
2614.16	129
2614.53	115
2614.89	137
2615.26	135
2615.62	117
2615.99	141
2616.36	117
2616.72	137
2617.09	173
2617.46	105
2617.82	161
2618.19	109
2618.56	137
2618.92	121
2619.29	139
2619.65	119
2620.02	109
2620.39	97
2620.75	153
2621.12	157
2621.48	91
2621.85	183
2622.22	95
2622.58	167
2622.95	131
2623.31	165
2623.68	127
2624.04	123
2624.41	119
2624.78	133
2625.14	145
2625.51	91
2625.87	185
2626.24	101
2626.6	183
2626.97	141
2627.34	167
2627.7	153
2628.07	145
2628.43	123
2628.8	157
2629.16	153
2629.53	115
2629.9	185
2630.26	91
2630.63	179
2630.99	121
2631.36	169
2631.72	159
2632.09	141
2632.45	141
2632.82	157
2633.18	153
2633.55	121
2633.91	219
2634.28	121
2634.64	181
2635.01	147
2635.37	183
2635.74	191
2636.1	109
2636.47	179
2636.83	157
2637.2	181
2637.56	155
2637.93	187
2638.29	161
2638.66	193
2639.02	151
2639.39	151
2639.75	189
2640.12	147
2640.48	149
2640.84	211
2641.21	161
2641.57	179
2641.94	167
2642.3	173
2642.67	205
2643.03	157
2643.4	165
2643.76	195
2644.13	189
2644.49	171
2644.85	203
2645.22	161
2645.58	229
2645.95	169
2646.31	195
2646.68	207
2647.04	185
2647.4	199
2647.77	215
2648.13	201
2648.5	177
2648.86	231
2649.22	173
2649.59	259
2649.95	141
2650.32	263
2650.68	217
2651.04	209
2651.41	229
2651.77	213
2652.14	231
2652.5	207
2652.86	227
2653.23	193
2653.59	259
2653.95	165
2654.32	231
2654.68	219
2655.05	225
2655.41	247
2655.77	191
2656.14	275
2656.5	207
2656.86	245
2657.23	197
2657.59	269
2657.95	193
2658.32	241
2658.68	239
2659.04	261
2659.41	257
2659.77	187
2660.13	293
2660.5	215
2660.86	245
2661.22	273
2661.59	253
2661.95	207
2662.31	259
2662.68	237
2663.04	247
2663.4	279
2663.76	183
2664.13	233
2664.49	223
2664.85	237
2665.22	259
2665.58	227
2665.94	199
2666.3	251
2666.67	225
2667.03	245
2667.39	261
2667.76	237
2668.12	245
2668.48	233
2668.84	231
2669.21	245
2669.57	219
2669.93	213
2670.29	237
2670.66	219
2671.02	251
2671.38	211
2671.74	197
2672.11	243
2672.47	265
2672.83	193
2673.19	255
2673.56	187
2673.92	201
2674.28	243
2674.64	187
2675	275
2675.37	173
2675.73	213
2676.09	187
2676.45	261
2676.81	183
2677.18	221
2677.54	153
2677.9	219
2678.26	203
2678.62	185
2678.99	253
2679.35	155
2679.71	223
2680.07	209
2680.43	215
2680.8	161
2681.16	229
2681.52	155
2681.88	201
2682.24	195
2682.6	169
2682.97	209
2683.33	129
2683.69	197
2684.05	173
2684.41	195
2684.77	141
2685.13	191
2685.5	133
2685.86	189
2686.22	161
2686.58	163
2686.94	189
2687.3	109
2687.66	207
2688.03	181
2688.39	185
2688.75	133
2689.11	171
2689.47	147
2689.83	173
2690.19	147
2690.55	151
2690.91	185
2691.28	131
2691.64	177
2692	167
2692.36	143
2692.72	161
2693.08	139
2693.44	157
2693.8	145
2694.16	139
2694.52	155
2694.88	153
2695.24	139
2695.61	139
2695.97	161
2696.33	129
2696.69	165
2697.05	121
2697.41	157
2697.77	167
2698.13	113
2698.49	175
2698.85	113
2699.21	153
2699.57	151
2699.93	175
2700.29	111
2700.65	173
2701.01	105
2701.37	171
2701.73	165
2702.09	121
2702.45	185
2702.81	95
2703.18	163
2703.53	129
2703.89	151
2704.25	121
2704.62	171
2704.98	111
2705.33	151
2705.69	121
2706.06	111
2706.42	173
2706.78	95
2707.13	175
2707.49	103
2707.85	163
2708.22	127
2708.57	149
2708.93	121
2709.29	151
2709.65	125
2710.01	107
2710.37	169
2710.73	61
2711.09	169
2711.45	121
2711.81	143
2712.17	143
2712.53	147
2712.89	137
2713.25	153
2713.61	153
2713.97	103
2714.33	161
2714.69	113
2715.05	139
2715.41	99
2715.76	109
2716.12	153
2716.48	113
2716.84	127
2717.2	139
2717.56	115
2717.92	127
2718.28	111
2718.64	107
2719	141
2719.35	115
2719.71	121
2720.07	163
2720.43	115
2720.79	109
2721.15	139
2721.51	115
2721.87	141
2722.23	111
2722.59	125
2722.94	151
2723.3	141
2723.66	105
2724.02	139
2724.38	111
2724.74	127
2725.1	135
2725.46	99
2725.81	143
2726.17	75
2726.53	135
2726.89	111
2727.25	123
2727.61	111
2727.96	147
2728.32	109
2728.68	129
2729.04	135
2729.4	85
2729.75	175
2730.11	53
2730.47	149
2730.83	105
2731.19	141
2731.55	103
2731.91	109
2732.26	105
2732.62	105
2732.98	157
2733.34	113
2733.69	183
2734.05	65
2734.41	157
2734.77	117
2735.13	125
2735.48	137
2735.84	115
2736.2	125
2736.56	127
2736.91	127
2737.27	127
2737.63	167
2737.99	65
2738.35	141
2738.7	119
2739.06	115
2739.42	127
2739.78	101
2740.13	147
2740.49	145
2740.85	125
2741.21	133
2741.56	129
2741.92	95
2742.28	157
2742.64	111
2742.99	129
2743.35	137
2743.71	113
2744.06	133
2744.42	139
2744.78	113
2745.14	143
2745.49	113
2745.85	103
2746.21	133
2746.57	135
2746.92	127
2747.28	109
2747.64	103
2747.99	125
2748.35	121
2748.71	79
2749.06	157
2749.42	67
2749.78	129
2750.13	127
2750.49	131
2750.85	111
2751.2	105
2751.56	121
2751.92	135
2752.27	151
2752.63	67
2752.99	187
2753.34	71
2753.7	155
2754.06	115
2754.41	127
2754.77	135
2755.13	95
2755.48	117
2755.84	121
2756.2	145
2756.55	73
2756.91	161
2757.26	85
2757.62	169
2757.98	115
2758.33	123
2758.69	133
2759.04	101
2759.4	139
2759.76	125
2760.11	133
2760.47	89
2760.83	139
2761.18	91
2761.54	131
2761.89	87
2762.25	127
2762.61	131
2762.96	107
2763.32	131
2763.67	127
2764.03	117
2764.38	117
2764.74	129
2765.1	107
2765.45	131
2765.81	91
2766.16	107
2766.52	151
2766.88	95
2767.23	99
2767.59	121
2767.94	109
2768.3	127
2768.65	79
2769.01	111
2769.36	127
2769.72	111
2770.07	121
2770.43	131
2770.78	109
2771.14	115
2771.49	131
2771.85	99
2772.21	167
2772.56	81
2772.92	129
2773.27	91
2773.63	111
2773.98	133
2774.34	111
2774.69	117
2775.05	95
2775.4	145
2775.76	95
2776.11	163
2776.47	67
2776.82	149
2777.18	103
2777.53	117
2777.89	161
2778.24	73
2778.59	113
2778.95	91
2779.3	133
2779.66	93
2780.01	141
2780.37	71
2780.72	139
2781.08	107
2781.43	131
2781.79	135
2782.14	95
2782.49	159
2782.85	121
2783.2	131
2783.56	99
2783.91	139
2784.27	55
2784.62	161
2784.98	123
2785.33	131
2785.68	133
2786.04	101
2786.39	143
2786.75	107
2787.1	137
2787.46	121
2787.81	121
2788.16	83
2788.52	137
2788.87	103
2789.22	111
2789.58	149
2789.93	93
2790.29	141
2790.64	115
2790.99	125
2791.35	121
2791.7	85
2792.06	83
2792.41	129
2792.76	127
2793.12	127
2793.47	141
2793.82	113
2794.18	133
2794.53	133
2794.88	109
2795.24	159
2795.59	83
2795.95	107
2796.3	143
2796.65	111
2797.01	127
2797.36	81
2797.71	123
2798.07	101
2798.42	139
2798.77	77
2799.13	137
2799.48	89
2799.83	113
2800.19	127
2800.54	109
2800.89	145
2801.24	65
2801.6	121
2801.95	123
2802.3	151
2802.66	85
2803.01	139
2803.36	77
2803.72	119
2804.07	137
2804.42	111
2804.77	165
2805.13	71
2805.48	137
2805.83	101
2806.19	161
2806.54	101
2806.89	145
2807.24	81
2807.6	135
2807.95	143
2808.3	93
2808.65	155
2809.01	47
2809.36	137
2809.71	113
2810.06	131
2810.42	95
2810.77	123
2811.12	109
2811.47	139
2811.83	121
2812.18	99
2812.53	151
2812.88	63
2813.24	145
2813.59	111
2813.94	121
2814.29	109
2814.64	105
2815	111
2815.35	147
2815.7	119
2816.05	131
2816.4	125
2816.76	77
2817.11	149
2817.46	125
2817.81	119
2818.16	113
2818.52	89
2818.87	105
2819.22	139
2819.57	95
2819.92	121
2820.28	107
2820.63	85
2820.98	135
2821.33	131
2821.68	93
2822.03	131
2822.39	103
2822.74	119
2823.09	113
2823.44	97
2823.79	137
2824.14	101
2824.49	109
2824.85	103
2825.2	145
2825.55	85
2825.9	145
2826.25	83
2826.6	151
2826.95	119
2827.31	93
2827.66	165
2828.01	77
2828.36	151
2828.71	83
2829.06	149
2829.41	107
2829.76	139
2830.11	77
2830.46	129
2830.82	143
2831.17	81
2831.52	161
2831.87	47
2832.22	149
2832.57	81
2832.92	147
2833.27	103
2833.62	123
2833.97	97
2834.32	133
2834.68	123
2835.03	89
2835.38	141
2835.73	81
2836.08	147
2836.43	101
2836.78	121
2837.13	123
2837.48	135
2837.83	85
2838.18	133
2838.53	111
2838.88	123
2839.23	131
2839.58	93
2839.93	139
2840.28	93
2840.63	97
2840.98	129
2841.33	99
2841.68	93
2842.03	111
2842.38	125
2842.73	109
2843.08	117
2843.43	93
2843.78	133
2844.13	103
2844.48	113
2844.83	139
2845.18	113
2845.53	105
2845.88	139
2846.23	123
2846.58	157
2846.93	85
2847.28	117
2847.63	121
2847.98	133
2848.33	75
2848.68	147
2849.03	101
2849.38	103
2849.73	119
2850.08	85
2850.43	159
2850.78	55
2851.13	129
2851.48	113
2851.83	143
2852.18	105
2852.53	129
2852.88	111
2853.23	109
2853.57	131
2853.92	105
2854.27	159
2854.62	47
2854.97	119
2855.32	113
2855.67	147
2856.02	111
2856.37	103
2856.72	113
2857.07	117
2857.42	131
2857.76	85
2858.11	155
2858.46	59
2858.81	155
2859.16	93
2859.51	117
2859.86	107
2860.21	135
2860.56	117
2860.91	97
2861.25	119
2861.6	81
2861.95	143
2862.3	47
2862.65	147
2863	107
2863.35	113
2863.69	127
2864.04	91
2864.39	105
2864.74	101
2865.09	131
2865.44	113
2865.78	127
2866.13	91
2866.48	125
2866.83	119
2867.18	115
2867.53	107
2867.88	87
2868.22	125
2868.57	125
2868.92	113
2869.27	129
2869.62	89
2869.96	107
2870.31	129
2870.66	121
2871.01	107
2871.36	109
2871.7	99
2872.05	117
2872.4	131
2872.75	63
2873.1	165
2873.44	87
2873.79	137
2874.14	119
2874.49	109
2874.84	131
2875.18	89
2875.53	117
2875.88	129
2876.23	137
2876.57	77
2876.92	163
2877.27	71
2877.62	129
2877.97	121
2878.31	125
2878.66	119
2879.01	61
2879.36	119
2879.7	95
2880.05	133
2880.4	75
2880.74	143
2881.09	67
2881.44	145
2881.79	103
2882.13	115
2882.48	129
2882.83	45
2883.18	137
2883.52	107
2883.87	133
2884.22	59
2884.56	145
2884.91	85
2885.26	151
2885.61	97
2885.95	93
2886.3	125
2886.65	59
2886.99	151
2887.34	103
2887.69	115
2888.03	89
2888.38	121
2888.73	99
2889.07	135
2889.42	105
2889.77	115
2890.11	145
2890.46	93
2890.81	115
2891.15	119
2891.5	101
2891.85	129
2892.19	101
2892.54	97
2892.89	129
2893.23	87
2893.58	121
2893.93	141
2894.27	107
2894.62	119
2894.96	143
2895.31	87
2895.66	141
2896	85
2896.35	144.75
2896.7	122.837
2897.04	91.7544
2897.39	120.686
2897.73	112.282
2898.08	127.349
2898.43	98.2749
2898.77	147.746
2899.12	88.1319
2899.46	154.941
2899.81	71.607
2900.16	124.939
2900.5	109.572
2900.85	102.569
2901.19	129.619
2901.54	84.5452
2901.88	121.566
2902.23	105.745
2902.58	129.098
2902.92	90.5923
2903.27	157.088
2903.61	77.0352
2903.96	141.061
2904.31	105.343
2904.65	116.351
2905	150.892
2905.34	84.3551
2905.69	125.107
2906.03	87.2437
2906.38	123.755
2906.72	118.841
2907.07	125.432
2907.42	95.1161
2907.76	131.942
2908.11	113.976
2908.45	102.221
2908.8	142.283
2909.14	98.4802
2909.49	120.53
2909.83	114.203
2910.18	113.243
2910.52	124.834
2910.87	101.202
2911.21	97.3002
2911.56	143.984
2911.9	111.145
2912.25	113.828
2912.59	133.577
2912.94	81.7391
2913.28	115.044
2913.63	102.729
2913.97	100.879
2914.32	129.235
2914.66	85.6062
2915.01	113.506
2915.35	123.465
2915.7	121.655
2916.04	108.829
2916.39	122.432
2916.73	91.6025
2917.08	112.361
2917.42	116.691
2917.77	96.9923
2918.11	140.227
2918.46	88.4908
2918.8	112.547
2919.15	122.983
2919.49	119.63
2919.83	109.384
2920.18	97.2928
2920.52	117.695
2920.87	109.091
2921.21	133.002
2921.56	109.46
2921.9	134.561
2922.24	95.8939
2922.59	90.2568
2922.93	120.848
2923.28	114.633
2923.62	121.828
2923.97	90.7674
2924.31	102.851
2924.65	112.463
2925	129.872
2925.34	112.741
2925.69	119.734
2926.03	112.365
2926.38	93.4086
2926.72	127.538
2927.06	103.247
2927.41	119.333
2927.75	90.5975
2928.09	116.177
2928.44	119.859
2928.78	139.886
2929.13	121.65
2929.47	123.642
2929.81	119.62
2930.16	102.338
2930.5	138.492
2930.79	115
2931.14	115
2931.49	117
2931.84	97
2932.19	119
2932.54	135
2932.88	113
2933.23	137
2933.58	125
2933.93	101
2934.28	135
2934.63	121
2934.97	93
2935.32	121
2935.67	57
2936.02	121
2936.37	117
2936.71	81
2937.06	143
2937.41	81
2937.76	127
2938.11	105
2938.46	133
2938.8	99
2939.15	139
2939.5	91
2939.85	129
2940.19	129
2940.54	85
2940.89	139
2941.24	73
2941.59	137
2941.93	111
2942.28	131
2942.63	91
2942.98	133
2943.32	93
2943.67	113
2944.02	135
2944.37	75
2944.72	157
2945.06	67
2945.41	149
2945.76	87
2946.11	111
2946.45	95
2946.8	119
2947.15	69
2947.49	135
2947.84	111
2948.19	83
2948.54	149
2948.88	75
2949.23	141
2949.58	103
2949.93	143
2950.27	95
2950.62	125
2950.97	107
2951.31	147
2951.66	109
2952.01	77
2952.35	157
2952.7	79
2953.05	145
2953.4	91
2953.74	123
2954.09	139
2954.44	93
2954.78	101
2955.13	121
2955.48	119
2955.82	111
2956.17	141
2956.52	79
2956.86	127
2957.21	105
2957.56	115
2957.9	137
2958.25	99
2958.6	117
2958.94	151
2959.29	119
2959.64	119
2959.98	111
2960.33	109
2960.68	131
2961.02	99
2961.37	109
2961.72	131
2962.06	85
2962.41	97
2962.76	115
2963.1	95
2963.45	127
2963.79	109
2964.14	105
2964.49	117
2964.83	113
2965.18	93
2965.52	137
2965.87	89
2966.22	99
2966.56	123
2966.91	103
2967.25	143
2967.6	69
2967.95	133
2968.29	99
2968.64	141
2968.98	111
2969.33	131
2969.68	91
2970.02	89
2970.37	135
2970.71	91
2971.06	159
2971.4	55
2971.75	145
2972.1	105
2972.44	123
2972.79	105
2973.13	119
2973.48	109
2973.82	101
2974.17	137
2974.51	93
2974.86	147
2975.21	65
2975.55	147
2975.9	111
2976.24	123
2976.59	129
2976.93	115
2977.28	103
2977.62	113
2977.97	147
2978.31	87
2978.66	157
2979	49
2979.35	147
2979.69	101
2980.04	137
2980.38	127
2980.73	107
2981.07	117
2981.42	131
2981.76	121
2982.11	93
2982.45	129
2982.8	61
2983.14	177
2983.49	103
2983.83	133
2984.18	113
2984.52	97
2984.87	117
2985.21	127
2985.56	123
2985.9	101
2986.25	125
2986.59	59
2986.94	131
2987.28	109
2987.62	107
2987.97	125
2988.31	115
2988.66	147
2989	131
2989.35	99
2989.69	137
2990.03	89
2990.38	121
2990.72	115
2991.07	133
2991.41	97
2991.76	119
2992.1	91
2992.44	113
2992.79	129
2993.13	89
2993.48	151
2993.82	67
2994.17	125
2994.51	115
2994.85	137
2995.2	117
2995.54	115
2995.89	111
2996.23	117
2996.57	157
2996.92	75
2997.26	145
2997.6	81
2997.95	143
2998.29	103
2998.64	111
2998.98	99
2999.32	113
2999.67	109
