#Acq. time (s)=	30
#Accumulations=	1
#Range (cm-¹)=	1050...3000 (30 s) 
#Windows=	6
#Auto scanning=	Off
#Autofocus=	Off
#AutoExposure=	Off
#Spike filter=	Off
#Delay time (s)=	0
#Binning=	1
#Readout mode=	Signal
#DeNoise=	Off
#ICS correction=	Off
#Dark correction=	Off
#Inst. Process=	Off
#Detector Gain=	High Sensitivity
#Detector ADC=	45 kHz       
#Detector temperature (°C)=	-60.1
#Instrument=	LabRAM
#Detector=	Syncerity
#Objective=	x50LWD
#Grating=	1800
#Filter=	25%
#Laser (nm)=	532
#Hole=	100
#E-Cal_Neon=	0
#StageXY=	Marzhauser
#StageZ=	Marzhauser
#X (µm)=	0
#Y (µm)=	0
#Z (µm)=	-1678.85
#Spectral res.(cm-¹)=	1.9
#Full time(mm:ss)=	3:09
#AC=	Not calibrated
#Project=	
#Sample=	
#Site=	
#Title=	Spot 1 350K reverse
#Remark=	
#Date=	19.02.2026 13:16
#Acquired=	19.02.2026 13:16:30
#Edit:Spike=	19.02.2026 13:22:03
#Edit:Spike=	19.02.2026 13:22:07
#AxisType[0]=Intens
#AxisUnit[0]=Cnt
#AxisType[1]=Spectr
#AxisUnit[1]=1/cm
1050.13	195
1050.59	127
1051.05	167
1051.51	175
1051.97	165
1052.44	173
1052.9	139
1053.36	151
1053.82	171
1054.28	139
1054.74	155
1055.2	191
1055.67	143
1056.13	147
1056.59	167
1057.05	133
1057.51	195
1057.97	131
1058.43	177
1058.89	127
1059.36	139
1059.82	165
1060.28	131
1060.74	165
1061.2	161
1061.66	191
1062.12	125
1062.58	243
1063.04	105
1063.5	213
1063.96	141
1064.43	137
1064.89	195
1065.35	147
1065.81	155
1066.27	127
1066.73	171
1067.19	129
1067.65	161
1068.11	103
1068.57	199
1069.03	165
1069.49	143
1069.95	169
1070.41	119
1070.87	183
1071.33	121
1071.79	197
1072.25	139
1072.71	147
1073.17	121
1073.63	169
1074.09	157
1074.55	151
1075.01	177
1075.47	139
1075.93	145
1076.39	161
1076.85	159
1077.31	175
1077.77	139
1078.23	133
1078.69	185
1079.15	135
1079.61	199
1080.07	119
1080.53	167
1080.99	149
1081.45	153
1081.91	155
1082.37	169
1082.83	121
1083.29	153
1083.75	177
1084.21	153
1084.66	193
1085.12	89
1085.58	159
1086.04	141
1086.5	165
1086.96	141
1087.42	161
1087.88	135
1088.34	167
1088.8	153
1089.25	123
1089.71	187
1090.17	81
1090.63	189
1091.09	143
1091.55	197
1092.01	163
1092.47	141
1092.92	139
1093.38	165
1093.84	177
1094.3	127
1094.76	185
1095.22	129
1095.68	189
1096.13	129
1096.59	147
1097.05	165
1097.51	127
1097.97	161
1098.43	167
1098.88	137
1099.34	153
1099.8	129
1100.26	143
1100.72	159
1101.17	163
1101.63	149
1102.09	143
1102.55	149
1103.01	165
1103.46	193
1103.92	115
1104.38	191
1104.84	109
1105.29	199
1105.75	181
1106.21	161
1106.67	171
1107.12	129
1107.58	161
1108.04	153
1108.5	183
1108.95	105
1109.41	187
1109.87	93
1110.33	189
1110.78	125
1111.24	167
1111.7	179
1112.16	127
1112.61	183
1113.07	151
1113.53	173
1113.98	127
1114.44	171
1114.9	125
1115.35	153
1115.81	147
1116.27	169
1116.72	185
1117.18	137
1117.64	179
1118.1	143
1118.55	153
1119.01	171
1119.47	139
1119.92	155
1120.38	175
1120.84	151
1121.29	153
1121.75	163
1122.2	155
1122.66	153
1123.12	159
1123.57	131
1124.03	175
1124.49	133
1124.94	189
1125.4	161
1125.86	135
1126.31	177
1126.77	151
1127.22	181
1127.68	145
1128.14	175
1128.59	117
1129.05	207
1129.5	121
1129.96	179
1130.41	175
1130.87	129
1131.33	181
1131.78	103
1132.24	175
1132.69	123
1133.15	167
1133.61	157
1134.06	183
1134.52	137
1134.97	167
1135.43	157
1135.88	135
1136.34	211
1136.79	111
1137.25	211
1137.7	141
1138.16	171
1138.61	183
1139.07	137
1139.52	155
1139.98	171
1140.43	123
1140.89	167
1141.34	145
1141.8	157
1142.25	181
1142.71	141
1143.16	151
1143.62	161
1144.07	133
1144.53	131
1144.98	177
1145.44	139
1145.89	205
1146.35	109
1146.8	199
1147.26	155
1147.71	157
1148.16	161
1148.62	161
1149.07	157
1149.53	143
1149.98	185
1150.44	131
1150.89	207
1151.35	109
1151.8	193
1152.25	177
1152.71	155
1153.16	171
1153.62	133
1154.07	157
1154.52	139
1154.98	171
1155.43	141
1155.89	185
1156.34	83
1156.79	175
1157.25	155
1157.7	167
1158.16	173
1158.61	137
1159.06	151
1159.52	147
1159.97	173
1160.42	163
1160.88	143
1161.33	119
1161.78	187
1162.24	167
1162.69	155
1163.14	179
1163.6	179
1164.05	165
1164.5	151
1164.96	129
1165.41	191
1165.86	127
1166.32	159
1166.77	183
1167.22	155
1167.68	173
1168.13	133
1168.58	175
1169.04	151
1169.49	191
1169.94	123
1170.39	181
1170.85	115
1171.3	165
1171.75	179
1172.2	137
1172.66	227
1173.11	85
1173.56	167
1174.01	135
1174.47	193
1174.92	129
1175.37	169
1175.82	125
1176.28	171
1176.73	177
1177.18	143
1177.63	191
1178.09	107
1178.54	205
1178.99	151
1179.44	165
1179.89	149
1180.35	149
1180.8	153
1181.25	147
1181.7	167
1182.15	155
1182.61	169
1183.06	81
1183.51	175
1183.96	131
1184.41	167
1184.87	151
1185.32	119
1185.77	161
1186.22	173
1186.67	131
1187.12	179
1187.58	159
1188.03	127
1188.48	179
1188.93	175
1189.38	145
1189.83	155
1190.28	139
1190.73	193
1191.19	169
1191.64	115
1192.09	193
1192.54	111
1192.99	175
1193.44	143
1193.89	161
1194.34	153
1194.8	131
1195.25	147
1195.7	143
1196.15	183
1196.6	107
1197.05	223
1197.5	91
1197.95	205
1198.4	149
1198.85	173
1199.3	155
1199.75	133
1200.2	181
1200.66	157
1201.11	177
1201.56	107
1202.01	167
1202.46	113
1202.91	175
1203.36	131
1203.81	153
1204.26	173
1204.71	131
1205.16	165
1205.61	161
1206.06	171
1206.51	159
1206.96	145
1207.41	149
1207.86	181
1208.31	133
1208.76	141
1209.21	145
1209.66	153
1210.11	149
1210.56	175
1211.01	123
1211.46	199
1211.91	119
1212.36	175
1212.81	169
1213.26	103
1213.71	181
1214.16	155
1214.61	185
1215.05	131
1215.51	175
1215.95	119
1216.4	199
1216.85	147
1217.3	167
1217.75	165
1218.2	125
1218.65	217
1219.1	107
1219.55	191
1220	107
1220.45	183
1220.9	143
1221.34	183
1221.79	131
1222.24	177
1222.69	163
1223.14	121
1223.59	177
1224.04	103
1224.49	193
1224.94	111
1225.38	173
1225.83	153
1226.28	127
1226.73	135
1227.18	181
1227.63	169
1228.07	165
1228.52	149
1228.97	149
1229.42	161
1229.87	133
1230.32	155
1230.76	193
1231.21	141
1231.66	157
1232.11	181
1232.56	163
1233.01	187
1233.45	109
1233.9	169
1234.35	163
1234.8	145
1235.25	159
1235.69	175
1236.14	159
1236.59	141
1237.04	173
1237.49	121
1237.93	201
1238.38	109
1238.83	157
1239.28	155
1239.72	153
1240.17	165
1240.62	137
1241.07	159
1241.51	131
1241.96	169
1242.41	139
1242.86	187
1243.3	113
1243.75	201
1244.2	161
1244.65	155
1245.09	185
1245.54	145
1245.99	173
1246.44	147
1246.88	169
1247.33	153
1247.78	185
1248.22	99
1248.67	187
1249.12	149
1249.56	143
1250.01	175
1250.46	121
1250.9	169
1251.35	151
1251.8	167
1252.24	181
1252.69	147
1253.14	141
1253.58	171
1254.03	163
1254.48	149
1254.92	151
1255.37	149
1255.82	169
1256.26	171
1256.71	155
1257.15	187
1257.6	123
1258.05	161
1258.49	175
1258.94	131
1259.39	201
1259.83	113
1260.28	185
1260.72	163
1261.17	185
1261.62	141
1262.06	173
1262.51	145
1262.95	159
1263.4	175
1263.85	125
1264.29	199
1264.74	87
1265.18	189
1265.63	125
1266.07	161
1266.52	171
1266.97	153
1267.41	169
1267.86	167
1268.3	171
1268.75	127
1269.19	203
1269.64	87
1270.08	189
1270.53	165
1270.97	167
1271.42	157
1271.86	133
1272.31	169
1272.76	185
1273.2	169
1273.64	157
1274.09	143
1274.53	155
1274.98	179
1275.42	147
1275.87	153
1276.31	155
1276.76	139
1277.2	183
1277.65	163
1278.09	131
1278.54	189
1278.98	165
1279.43	145
1279.87	159
1280.32	153
1280.76	153
1281.21	143
1281.65	153
1282.09	183
1282.54	187
1282.98	145
1283.43	189
1283.87	121
1284.32	175
1284.76	165
1285.21	177
1285.65	193
1286.09	111
1286.54	193
1286.98	165
1287.42	205
1287.87	115
1288.31	197
1288.76	101
1289.2	203
1289.64	161
1290.09	149
1290.53	179
1290.98	101
1291.42	195
1291.86	151
1292.31	191
1292.75	121
1293.19	171
1293.64	147
1294.08	179
1294.53	145
1294.97	163
1295.41	147
1295.85	125
1296.3	189
1296.74	175
1297.19	159
1297.63	175
1298.07	153
1298.51	165
1298.96	201
1299.4	131
1299.84	169
1300.29	159
1300.73	161
1301.17	141
1301.62	175
1302.06	141
1302.5	171
1302.94	143
1303.39	173
1303.83	173
1304.27	121
1304.72	179
1305.16	97
1305.6	167
1306.04	135
1306.49	183
1306.93	145
1307.37	161
1307.81	143
1308.26	179
1308.7	197
1309.14	133
1309.58	201
1310.03	121
1310.47	205
1310.91	135
1311.35	167
1311.8	181
1312.24	169
1312.68	149
1313.12	155
1313.56	151
1314	137
1314.45	179
1314.89	135
1315.33	199
1315.77	145
1316.22	173
1316.66	177
1317.1	135
1317.54	177
1317.98	175
1318.43	161
1318.87	173
1319.31	139
1319.75	163
1320.19	151
1320.63	141
1321.07	159
1321.51	203
1321.96	141
1322.4	177
1322.84	199
1323.28	147
1323.72	209
1324.16	151
1324.6	199
1325.05	187
1325.49	167
1325.93	183
1326.37	177
1326.81	171
1327.25	149
1327.69	193
1328.13	133
1328.57	211
1329.02	103
1329.45	197
1329.9	137
1330.34	153
1330.78	215
1331.22	133
1331.66	197
1332.1	151
1332.54	209
1332.98	167
1333.42	207
1333.86	157
1334.3	211
1334.74	199
1335.18	165
1335.62	219
1336.07	143
1336.5	231
1336.95	179
1337.39	205
1337.83	211
1338.27	185
1338.71	183
1339.15	209
1339.59	195
1340.03	185
1340.47	205
1340.91	183
1341.35	209
1341.79	175
1342.23	203
1342.67	213
1343.11	167
1343.55	207
1343.99	223
1344.43	219
1344.86	237
1345.31	145
1345.74	207
1346.18	177
1346.62	231
1347.06	187
1347.5	229
1347.94	167
1348.38	165
1348.82	221
1349.26	161
1349.7	243
1350.14	147
1350.58	223
1351.02	169
1351.46	219
1351.9	193
1352.33	199
1352.77	165
1353.21	187
1353.65	215
1354.09	149
1354.53	237
1354.97	105
1355.41	217
1355.85	169
1356.29	167
1356.72	181
1357.16	153
1357.6	163
1358.04	175
1358.48	189
1358.92	191
1359.36	181
1359.79	137
1360.23	183
1360.67	151
1361.11	179
1361.55	203
1361.99	137
1362.43	183
1362.87	173
1363.3	163
1363.74	191
1364.18	149
1364.62	185
1365.06	189
1365.49	159
1365.93	183
1366.37	163
1366.81	283
1367.25	193.5
1367.68	199.9
1368.12	145
1368.56	215
1369	121
1369.44	183
1369.87	201
1370.31	155
1370.75	181
1371.19	113
1371.62	155
1372.06	187
1372.5	181
1372.94	117
1373.37	183
1373.81	117
1374.25	193
1374.69	157
1375.12	185
1375.56	169
1376	103
1376.44	189
1376.87	155
1377.31	201
1377.75	159
1378.19	179
1378.62	147
1379.06	199
1379.5	161
1379.93	143
1380.37	181
1380.81	129
1381.25	183
1381.68	157
1382.12	169
1382.56	151
1382.99	141
1383.43	159
1383.87	179
1384.3	169
1384.74	181
1385.18	147
1385.61	165
1386.05	153
1386.49	169
1386.92	147
1387.36	189
1387.8	127
1388.23	169
1388.67	173
1389.1	111
1389.54	195
1389.98	109
1390.41	185
1390.85	131
1391.29	191
1391.72	137
1392.16	163
1392.59	157
1393.03	185
1393.47	179
1393.9	145
1394.34	211
1394.77	121
1395.21	215
1395.65	133
1396.08	157
1396.52	159
1396.95	171
1397.39	147
1397.82	167
1398.26	167
1398.7	119
1399.13	201
1399.57	99
1400	187
1400.44	119
1400.87	165
1401.31	173
1401.74	153
1402.18	175
1402.62	183
1403.05	135
1403.49	175
1403.92	143
1404.36	159
1404.79	165
1405.23	141
1405.66	163
1406.1	157
1406.53	137
1406.97	159
1407.4	171
1407.84	133
1408.27	215
1408.71	117
1409.14	161
1409.58	137
1410.01	147
1410.45	149
1410.88	145
1411.31	133
1411.75	151
1412.18	157
1412.62	133
1413.05	217
1413.49	109
1413.92	205
1414.36	161
1414.79	145
1415.23	195
1415.66	123
1416.1	197
1416.53	125
1416.96	209
1417.4	139
1417.83	181
1418.27	121
1418.7	177
1419.13	167
1419.57	151
1420	167
1420.44	117
1420.87	165
1421.3	133
1421.74	167
1422.17	137
1422.61	139
1423.04	133
1423.47	177
1423.91	153
1424.34	157
1424.77	159
1425.21	147
1425.64	165
1426.07	169
1426.51	137
1426.94	179
1427.38	119
1427.81	157
1428.24	169
1428.68	165
1429.11	189
1429.54	117
1429.98	181
1430.41	151
1430.84	155
1431.28	133
1431.71	191
1432.14	113
1432.57	147
1433.01	173
1433.44	153
1433.87	209
1434.31	111
1434.74	181
1435.17	133
1435.61	207
1436.04	127
1436.47	151
1436.9	135
1437.34	159
1437.77	161
1438.2	145
1438.63	195
1439.07	79
1439.5	207
1439.93	135
1440.36	175
1440.8	147
1441.23	147
1441.66	157
1442.09	163
1442.53	175
1442.96	145
1443.39	183
1443.82	135
1444.26	199
1444.69	173
1445.12	149
1445.55	181
1445.98	125
1446.42	169
1446.85	165
1447.28	157
1447.71	165
1448.14	135
1448.57	143
1449.01	161
1449.44	153
1449.87	125
1450.3	139
1450.73	135
1451.17	159
1451.6	185
1452.03	133
1452.46	213
1452.89	95
1453.32	153
1453.76	151
1454.19	175
1454.62	195
1455.05	125
1455.48	167
1455.91	157
1456.34	181
1456.77	109
1457.21	191
1457.64	97
1458.07	165
1458.5	151.069
1458.93	131.169
1459.36	179.967
1459.79	82.825
1460.22	180.166
1460.65	138.405
1461.08	175.515
1461.52	122.441
1461.95	149.738
1462.38	132.161
1462.81	171.519
1463.24	137.676
1463.67	135.494
1464.1	169.152
1464.53	123.937
1464.96	171.411
1465.39	144.577
1465.82	171.551
1466.25	150.691
1466.68	143.45
1467.11	151.377
1467.54	161.992
1467.98	144.674
1468.41	170.496
1468.84	147.933
1469.27	139.252
1469.7	159.746
1470.13	167.814
1470.56	138.807
1470.99	157.345
1471.42	124
1471.85	158.264
1472.28	153.006
1472.71	133.514
1473.14	171.004
1473.57	136.666
1474	158.41
1474.43	125.526
1474.86	176.579
1475.29	127.745
1475.72	183.502
1476.15	154.116
1476.58	173.167
1477.01	166.774
1477.44	122.787
1477.87	175.86
1478.3	144.91
1478.72	182.364
1479.15	126.713
1479.58	178.335
1480.01	152.021
1480.44	153.168
1480.87	148.194
1481.3	144.02
1481.73	166.411
1482.16	161.534
1482.59	162.075
1483.02	153.068
1483.45	153.253
1483.88	134.665
1484.31	146.918
1484.74	161.063
1485.17	133.198
1485.59	153.436
1486.02	155.963
1486.45	168.883
1486.88	157.212
1487.31	138.273
1487.74	167.467
1488.17	143.7
1488.6	148.157
1489.02	150.262
1489.45	169.293
1489.88	154.41
1490.31	147.082
1490.74	151.838
1491.17	149.418
1491.6	165.446
1492.03	120.862
1492.45	161.507
1492.88	133.239
1493.31	160.343
1493.74	161.649
1494.17	147.744
1494.6	151.139
1495.02	133.137
1495.45	146.712
1495.88	144.522
1496.31	166.382
1496.74	138.298
1497.17	150.04
1497.59	144.855
1498.02	146.715
1498.45	156.389
1498.88	153.716
1499.31	166.451
1499.73	142.695
1500.16	142.041
1500.59	155.37
1501.02	153.937
1501.45	148.887
1501.87	139.17
1502.13	153
1502.56	131
1502.99	175
1503.43	139
1503.86	153
1504.29	191
1504.72	131
1505.16	163
1505.59	159
1506.02	143
1506.46	173
1506.89	145
1507.32	145
1507.75	173
1508.19	127
1508.62	145
1509.05	153
1509.49	141
1509.92	161
1510.35	145
1510.78	137
1511.21	191
1511.65	111
1512.08	159
1512.51	179
1512.94	137
1513.38	173
1513.81	123
1514.24	155
1514.67	147
1515.11	185
1515.54	125
1515.97	185
1516.4	119
1516.83	191
1517.27	179
1517.7	125
1518.13	203
1518.56	111
1518.99	199
1519.42	133
1519.86	195
1520.29	155
1520.72	171
1521.15	125
1521.58	165
1522.01	173
1522.45	131
1522.88	195
1523.31	115
1523.74	205
1524.17	143
1524.6	163
1525.04	175
1525.47	123
1525.9	141
1526.33	155
1526.76	167
1527.19	161
1527.62	151
1528.05	139
1528.49	185
1528.92	149
1529.35	153
1529.78	163
1530.21	141
1530.64	155
1531.07	177
1531.5	155
1531.93	195
1532.37	133
1532.8	191
1533.23	177
1533.66	165
1534.09	157
1534.52	171
1534.95	159
1535.38	149
1535.81	155
1536.24	141
1536.67	201
1537.1	111
1537.53	159
1537.96	145
1538.39	175
1538.82	141
1539.26	169
1539.68	143
1540.12	147
1540.55	163
1540.98	133
1541.41	205
1541.84	95
1542.27	207
1542.7	147
1543.13	199
1543.56	173
1543.99	125
1544.42	161
1544.85	181
1545.28	175
1545.71	141
1546.14	183
1546.57	101
1547	195
1547.43	151
1547.86	165
1548.29	191
1548.72	121
1549.14	183
1549.57	165
1550.01	177
1550.43	163
1550.86	159
1551.29	133
1551.72	207
1552.15	181
1552.58	145
1553.01	179
1553.44	133
1553.87	187
1554.3	179
1554.73	149
1555.16	207
1555.59	167
1556.01	181
1556.44	207
1556.87	181
1557.3	189
1557.73	147
1558.16	179
1558.59	157
1559.02	201
1559.45	147
1559.88	241
1560.3	143
1560.73	161
1561.16	163
1561.59	175
1562.02	195
1562.45	139
1562.88	187
1563.31	189
1563.73	213
1564.16	131
1564.59	201
1565.02	127
1565.45	201
1565.88	177
1566.3	171
1566.73	225
1567.16	107
1567.59	203
1568.02	189
1568.45	217
1568.88	173
1569.3	215
1569.73	169
1570.16	199
1570.59	189
1571.01	185
1571.44	233
1571.87	119
1572.3	225
1572.73	209
1573.15	235
1573.58	205
1574.01	205
1574.44	217
1574.87	221
1575.29	227
1575.72	217
1576.15	243
1576.58	173
1577	209
1577.43	239
1577.86	245
1578.29	215
1578.71	219
1579.14	243
1579.57	265
1580	201
1580.42	277
1580.85	205
1581.28	251
1581.71	249
1582.13	253
1582.56	261
1582.99	283
1583.41	247
1583.84	271
1584.27	299
1584.7	255
1585.12	331
1585.55	267
1585.98	329
1586.4	305
1586.83	319
1587.26	311
1587.68	331
1588.11	351
1588.54	409
1588.96	433
1589.39	387
1589.82	493
1590.24	405
1590.67	505
1591.1	473
1591.52	547
1591.95	525
1592.38	527
1592.8	589
1593.23	595
1593.65	673
1594.08	591
1594.51	705
1594.93	653
1595.36	689
1595.79	679
1596.21	657
1596.64	683
1597.06	607
1597.49	649
1597.92	669
1598.34	629
1598.77	563
1599.19	589
1599.62	537
1600.05	557
1600.47	503
1600.9	463
1601.32	491
1601.75	431
1602.18	419
1602.6	429
1603.03	357
1603.45	365
1603.88	319
1604.3	359
1604.73	317
1605.15	265
1605.58	291
1606	261
1606.43	279
1606.86	245
1607.28	265
1607.71	211
1608.13	267
1608.56	189
1608.98	243
1609.41	205
1609.83	185
1610.26	227
1610.68	163
1611.11	219
1611.53	189
1611.96	231
1612.38	181
1612.81	231
1613.23	175
1613.66	213
1614.08	181
1614.51	149
1614.93	239
1615.36	147
1615.78	209
1616.21	153
1616.63	195
1617.06	179
1617.48	201
1617.9	165
1618.33	205
1618.75	171
1619.18	185
1619.6	207
1620.03	155
1620.45	198
1620.88	201.2
1621.3	245
1621.72	201
1622.15	157
1622.57	159
1623	187
1623.42	167
1623.85	183
1624.27	175
1624.69	147
1625.12	177
1625.54	159
1625.97	179
1626.39	193
1626.81	123
1627.24	151
1627.66	163
1628.08	137
1628.51	203
1628.93	99
1629.36	179
1629.78	147
1630.2	177
1630.63	147
1631.05	183
1631.47	127
1631.9	143
1632.32	163
1632.74	133
1633.17	203
1633.59	107
1634.01	207
1634.44	143
1634.86	173
1635.28	147
1635.71	153
1636.13	141
1636.55	145
1636.98	175
1637.4	151
1637.82	193
1638.25	95
1638.67	159
1639.09	135
1639.51	155
1639.94	161
1640.36	125
1640.78	145
1641.21	157
1641.63	171
1642.05	137
1642.47	135
1642.9	109
1643.32	177
1643.74	135
1644.17	159
1644.59	157
1645.01	145
1645.43	155
1645.86	173
1646.28	137
1646.7	159
1647.12	109
1647.55	145
1647.97	167
1648.39	159
1648.81	161
1649.23	145
1649.66	127
1650.08	159
1650.5	149
1650.92	133
1651.35	189
1651.77	89
1652.19	149
1652.61	153
1653.03	159
1653.45	165
1653.88	101
1654.3	139
1654.72	133
1655.14	167
1655.56	99
1655.99	189
1656.41	71
1656.83	179
1657.25	133
1657.67	139
1658.09	149
1658.52	89
1658.94	161
1659.36	133
1659.78	171
1660.2	129
1660.62	179
1661.04	113
1661.47	163
1661.89	159
1662.31	113
1662.73	171
1663.15	113
1663.57	149
1663.99	123
1664.41	143
1664.83	123
1665.26	125
1665.68	137
1666.1	141
1666.52	135
1666.94	149
1667.36	151
1667.78	89
1668.2	153
1668.62	155
1669.04	133
1669.46	127
1669.89	121
1670.31	137
1670.73	161
1671.15	119
1671.57	153
1671.99	141
1672.41	127
1672.83	145
1673.25	149
1673.67	131
1674.09	169
1674.51	95
1674.93	163
1675.35	157
1675.77	111
1676.19	163
1676.61	95
1677.03	153
1677.45	115
1677.87	151
1678.29	123
1678.71	143
1679.13	119
1679.55	137
1679.97	155
1680.39	99
1680.81	209
1681.23	87
1681.65	165
1682.07	111
1682.49	153
1682.91	141
1683.33	135
1683.75	153
1684.17	141
1684.59	169
1685.01	101
1685.43	189
1685.85	115
1686.27	173
1686.69	137
1687.11	145
1687.53	179
1687.95	143
1688.37	155
1688.78	143
1689.2	153
1689.62	111
1690.04	127
1690.46	117
1690.88	147
1691.3	127
1691.72	129
1692.14	167
1692.56	119
1692.98	153
1693.39	145
1693.81	127
1694.23	157
1694.65	113
1695.07	149
1695.49	143
1695.91	111
1696.33	131
1696.75	147
1697.16	145
1697.58	125
1698	159
1698.42	97
1698.84	181
1699.26	91
1699.68	153
1700.09	111
1700.51	121
1700.93	163
1701.35	107
1701.77	147
1702.19	119
1702.6	165
1703.02	93
1703.44	175
1703.86	73
1704.28	169
1704.69	115
1705.11	107
1705.53	149
1705.95	85
1706.37	169
1706.78	115
1707.2	147
1707.62	129
1708.04	153
1708.46	97
1708.87	179
1709.29	129
1709.71	127
1710.13	157
1710.54	107
1710.96	149
1711.38	137
1711.8	145
1712.22	159
1712.63	137
1713.05	117
1713.47	133
1713.89	143
1714.3	149
1714.72	133
1715.14	119
1715.56	129
1715.97	145
1716.39	109
1716.81	167
1717.22	99
1717.64	119
1718.06	153
1718.48	121
1718.89	169
1719.31	85
1719.73	159
1720.14	133
1720.56	151
1720.98	121
1721.39	177
1721.81	89
1722.23	151
1722.64	157
1723.06	117
1723.48	181
1723.89	87
1724.31	179
1724.73	117
1725.14	147
1725.56	111
1725.98	167
1726.39	117
1726.81	169
1727.23	141
1727.64	139
1728.06	181
1728.48	73
1728.89	179
1729.31	115
1729.72	145
1730.14	129
1730.56	125
1730.97	119
1731.39	143
1731.8	143
1732.22	123
1732.64	151
1733.05	105
1733.47	151
1733.89	129
1734.3	141
1734.72	139
1735.13	127
1735.55	149
1735.96	131
1736.38	131
1736.8	163
1737.21	115
1737.63	141
1738.04	143
1738.46	149
1738.87	113
1739.29	143
1739.71	109
1740.12	159
1740.54	153
1740.95	93
1741.37	189
1741.78	99
1742.2	159
1742.61	131
1743.03	145
1743.44	137
1743.86	127
1744.27	129
1744.69	127
1745.1	163
1745.52	79
1745.93	189
1746.35	113
1746.77	161
1747.18	113
1747.59	147
1748.01	159
1748.42	119
1748.84	141
1749.25	149
1749.67	143
1750.08	97
1750.5	173
1750.91	81
1751.33	163
1751.74	93
1752.16	119
1752.57	137
1752.99	119
1753.4	149
1753.81	133
1754.23	145
1754.64	127
1755.06	151
1755.47	111
1755.89	149
1756.3	117
1756.72	121
1757.13	145
1757.54	109
1757.96	143
1758.37	137
1758.78	129
1759.2	155
1759.61	107
1760.03	137
1760.44	143
1760.86	107
1761.27	131
1761.68	137
1762.1	119
1762.51	123
1762.92	155
1763.34	109
1763.75	179
1764.17	97
1764.58	163
1764.99	163
1765.41	113
1765.82	151
1766.23	87
1766.65	167
1767.06	109
1767.47	163
1767.89	109
1768.3	165
1768.71	87
1769.13	153
1769.54	143
1769.95	105
1770.37	171
1770.78	93
1771.19	167
1771.61	125
1772.02	161
1772.43	117
1772.85	151
1773.26	113
1773.67	139
1774.09	125
1774.5	123
1774.91	179
1775.32	87
1775.74	139
1776.15	91
1776.56	139
1776.97	157
1777.39	127
1777.8	107
1778.21	151
1778.62	141
1779.04	127
1779.45	145
1779.86	89
1780.28	161
1780.69	95
1781.1	129
1781.51	151
1781.92	109
1782.34	131
1782.75	151
1783.16	127
1783.57	165
1783.99	105
1784.4	137
1784.81	121
1785.22	127
1785.63	101
1786.05	167
1786.46	111
1786.87	119
1787.28	155
1787.69	109
1788.11	183
1788.52	83
1788.93	149
1789.34	89
1789.75	147
1790.17	109
1790.58	115
1790.99	115
1791.4	117
1791.81	143
1792.22	113
1792.63	183
1793.05	67
1793.46	165
1793.87	133
1794.28	139
1794.69	131
1795.1	123
1795.52	127
1795.93	133
1796.34	169
1796.75	133
1797.16	145
1797.57	81
1797.98	167
1798.39	113
1798.81	119
1799.22	137
1799.63	109
1800.04	143
1800.45	151
1800.86	129
1801.27	159
1801.68	109
1802.09	103
1802.5	135
1802.91	149
1803.32	141
1803.73	117
1804.15	121
1804.56	159
1804.97	145
1805.38	115
1805.79	173
1806.2	79
1806.61	137
1807.02	119
1807.43	149
1807.84	129
1808.25	115
1808.66	133
1809.07	129
1809.48	141
1809.89	79
1810.3	155
1810.71	71
1811.12	169
1811.53	127
1811.94	141
1812.35	151
1812.76	105
1813.17	155
1813.58	115
1813.99	137
1814.4	95
1814.81	161
1815.22	69
1815.63	173
1816.04	131
1816.45	119
1816.86	157
1817.27	87
1817.68	145
1818.09	113
1818.5	147
1818.91	113
1819.32	131
1819.73	111
1820.14	149
1820.55	113
1820.96	141
1821.37	151
1821.78	113
1822.19	127
1822.6	135
1823.01	123
1823.42	149
1823.82	87
1824.23	127
1824.64	151
1825.05	107
1825.46	137
1825.87	111
1826.28	127
1826.69	121
1827.1	161
1827.51	105
1827.91	165
1828.32	97
1828.73	149
1829.14	141
1829.55	107
1829.96	157
1830.37	87
1830.78	151
1831.18	93
1831.59	155
1832	93
1832.41	185
1832.82	97
1833.23	147
1833.64	125
1834.05	107
1834.45	169
1834.86	87
1835.27	169
1835.68	99
1836.09	145
1836.49	113
1836.9	133
1837.31	97
1837.72	137
1838.13	135
1838.53	117
1838.94	163
1839.35	73
1839.76	161
1840.17	99
1840.58	155
1840.98	125
1841.39	121
1841.8	117
1842.21	133
1842.61	115
1843.02	125
1843.43	133
1843.84	109
1844.25	141
1844.65	135
1845.06	115
1845.47	153
1845.88	99
1846.28	132.928
1846.69	148.565
1847.1	126.69
1847.51	155.403
1847.91	102.186
1848.32	138.034
1848.73	122.815
1849.14	131.611
1849.54	129.836
1849.95	150.891
1850.36	100.541
1850.77	113.856
1851.17	147.827
1851.58	117.693
1851.99	161.367
1852.39	74.1537
1852.8	124.77
1853.21	125.824
1853.62	131.336
1854.02	143.309
1854.43	138.063
1854.84	127.92
1855.24	120.288
1855.65	143.815
1856.06	115.107
1856.46	157.487
1856.87	86.7741
1857.28	149.554
1857.68	116.405
1858.09	134.783
1858.5	137.116
1858.9	123.413
1859.31	144.822
1859.72	105.998
1860.12	165.354
1860.53	103.127
1860.94	159.808
1861.34	107.106
1861.75	151.054
1862.15	137.22
1862.56	111.106
1862.97	161.814
1863.37	111.662
1863.78	154.498
1864.19	109.606
1864.59	142.552
1865	120.546
1865.4	119.948
1865.81	130.055
1866.22	130.58
1866.62	143.315
1867.03	104.764
1867.43	122.345
1867.84	111.969
1868.25	146.369
1868.65	132.373
1869.06	106.827
1869.46	136.502
1869.87	108.094
1870.28	131.587
1870.68	141.915
1871.09	136.066
1871.49	125.693
1871.9	128.994
1872.3	144.687
1872.71	130.816
1873.12	133.47
1873.52	111.837
1873.93	140.037
1874.33	129.3
1874.74	135.354
1875.14	133.084
1875.55	130.117
1875.95	133.279
1876.36	114.136
1876.76	138.784
1877.17	131.663
1877.57	138.277
1877.98	121.887
1878.38	127.29
1878.79	122.028
1879.19	127.26
1879.6	124.313
1880	127.047
1880.41	120.699
1880.81	122.47
1881.22	139.753
1881.63	126.177
1882.03	121.654
1882.43	121.041
1882.84	115.064
1883.24	136.371
1883.65	130.442
1884.05	118.159
1884.46	124.734
1884.86	92.0745
1885.27	139.11
1885.67	117.738
1886.08	155.741
1886.48	124.668
1886.89	122.349
1887.29	117.187
1887.69	144.556
1888.1	130.923
1888.5	87.2769
1888.85	187
1889.26	87
1889.67	173
1890.08	87
1890.49	141
1890.9	125
1891.3	115
1891.71	117
1892.12	129
1892.53	145
1892.94	83
1893.35	151
1893.76	79
1894.17	127
1894.58	99
1894.99	135
1895.4	167
1895.81	115
1896.22	131
1896.62	125
1897.03	129
1897.44	131
1897.85	123
1898.26	109
1898.67	153
1899.08	135
1899.49	139
1899.9	143
1900.3	111
1900.71	111
1901.12	129
1901.53	115
1901.94	163
1902.35	89
1902.75	125
1903.16	139
1903.57	115
1903.98	131
1904.39	127
1904.8	113
1905.21	115
1905.61	133
1906.02	119
1906.43	165
1906.84	61
1907.25	153
1907.66	139
1908.06	139
1908.47	143
1908.88	115
1909.29	105
1909.7	117
1910.1	149
1910.51	111
1910.92	185
1911.33	67
1911.73	155
1912.14	121
1912.55	123
1912.96	137
1913.37	93
1913.77	155
1914.18	99
1914.59	165
1915	117
1915.4	163
1915.81	73
1916.22	133
1916.63	113
1917.03	113
1917.44	157
1917.85	85
1918.26	151
1918.66	109
1919.07	137
1919.48	153
1919.89	131
1920.29	77
1920.7	135
1921.11	121
1921.51	119
1921.92	131
1922.33	101
1922.73	135
1923.14	131
1923.55	129
1923.96	147
1924.36	107
1924.77	113
1925.18	147
1925.58	129
1925.99	141
1926.4	97
1926.8	115
1927.21	133
1927.62	153
1928.02	117
1928.43	169
1928.84	95
1929.24	131
1929.65	137
1930.06	127
1930.46	159
1930.87	75
1931.28	149
1931.68	133
1932.09	149
1932.49	83
1932.9	175
1933.31	99
1933.71	135
1934.12	137
1934.53	107
1934.93	155
1935.34	79
1935.74	165
1936.15	107
1936.56	157
1936.96	117
1937.37	143
1937.78	125
1938.18	129
1938.59	145
1938.99	111
1939.4	179
1939.8	65
1940.21	167
1940.62	117
1941.02	153
1941.43	123
1941.83	143
1942.24	121
1942.64	139
1943.05	121
1943.45	115
1943.86	143
1944.27	75
1944.67	171
1945.08	145
1945.48	119
1945.89	137
1946.29	109
1946.7	141
1947.1	141
1947.51	117
1947.91	155
1948.32	107
1948.72	95
1949.13	141
1949.53	127
1949.94	131
1950.34	145
1950.75	117
1951.15	131
1951.56	137
1951.96	127
1952.37	149
1952.77	91
1953.18	127
1953.58	151
1953.99	131
1954.39	129
1954.8	119
1955.2	107
1955.61	129
1956.01	143
1956.42	79
1956.82	179
1957.23	85
1957.63	153
1958.03	109
1958.44	137
1958.84	117
1959.25	103
1959.65	133
1960.06	139
1960.46	165
1960.86	73
1961.27	189
1961.67	77
1962.08	161
1962.48	101
1962.89	139
1963.29	143
1963.69	117
1964.1	137
1964.5	121
1964.91	139
1965.31	105
1965.71	167
1966.12	83
1966.52	149
1966.93	121
1967.33	127
1967.73	145
1968.14	103
1968.54	145
1968.94	147
1969.35	129
1969.75	119
1970.15	133
1970.56	107
1970.96	141
1971.37	115
1971.77	137
1972.17	139
1972.58	139
1972.98	125
1973.38	149
1973.79	125
1974.19	163
1974.59	117
1974.99	137
1975.4	153
1975.8	123
1976.21	137
1976.61	137
1977.01	129
1977.41	131
1977.82	143
1978.22	107
1978.62	163
1979.03	75
1979.43	155
1979.83	117
1980.24	125
1980.64	135
1981.04	101
1981.44	139
1981.85	107
1982.25	157
1982.65	93
1983.05	181
1983.46	65
1983.86	147
1984.26	107
1984.66	137
1985.07	161
1985.47	89
1985.87	141
1986.27	109
1986.68	149
1987.08	115
1987.48	159
1987.88	93
1988.29	149
1988.69	125
1989.09	111
1989.49	149
1989.89	117
1990.3	133
1990.7	119
1991.1	127
1991.5	129
1991.9	115
1992.31	95
1992.71	147
1993.11	129
1993.51	125
1993.91	119
1994.32	99
1994.72	129
1995.12	153
1995.52	119
1995.92	149
1996.32	105
1996.73	121
1997.13	159
1997.53	131
1997.93	165
1998.33	105
1998.73	139
1999.14	135
1999.54	159
1999.94	99
2000.34	161
2000.74	87
2001.14	141
2001.54	117
2001.94	131
2002.35	153
2002.75	79
2003.15	155
2003.55	121
2003.95	151
2004.35	85
2004.75	161
2005.15	81
2005.55	161
2005.96	129
2006.36	111
2006.76	167
2007.16	79
2007.56	157
2007.96	115
2008.36	169
2008.76	99
2009.16	145
2009.56	123
2009.96	147
2010.36	137
2010.76	123
2011.16	167
2011.57	75
2011.97	175
2012.37	133
2012.77	151
2013.17	125
2013.57	105
2013.97	111
2014.37	163
2014.77	141
2015.17	135
2015.57	125
2015.97	99
2016.37	145
2016.77	123
2017.17	135
2017.57	129
2017.97	113
2018.37	125
2018.77	161
2019.17	119
2019.57	153
2019.97	107
2020.37	131
2020.77	143
2021.17	151
2021.57	133
2021.97	145
2022.37	107
2022.77	139
2023.17	139
2023.57	97
2023.97	171
2024.37	93
2024.77	155
2025.17	113
2025.57	139
2025.97	119
2026.37	121
2026.77	93
2027.16	147
2027.56	149
2027.96	87
2028.36	187
2028.76	75
2029.16	183
2029.56	89
2029.96	127
2030.36	121
2030.76	109
2031.16	127
2031.56	135
2031.96	159
2032.35	97
2032.75	181
2033.15	79
2033.55	179
2033.95	99
2034.35	131
2034.75	143
2035.15	115
2035.54	119
2035.94	109
2036.34	129
2036.74	117
2037.14	149
2037.54	89
2037.94	147
2038.34	115
2038.74	121
2039.13	149
2039.53	103
2039.93	131
2040.33	143
2040.73	121
2041.12	133
2041.52	125
2041.92	133
2042.32	135
2042.72	111
2043.12	123
2043.51	155
2043.91	107
2044.31	139
2044.71	143
2045.11	115
2045.51	157
2045.9	85
2046.3	149
2046.7	127
2047.1	115
2047.49	133
2047.89	113
2048.29	121
2048.69	105
2049.09	151
2049.48	89
2049.88	177
2050.28	81
2050.68	159
2051.07	111
2051.47	115
2051.87	141
2052.27	97
2052.67	147
2053.06	89
2053.46	143
2053.86	87
2054.26	159
2054.65	59
2055.05	155
2055.45	113
2055.85	149
2056.24	171
2056.64	87
2057.04	147
2057.43	105
2057.83	149
2058.23	115
2058.62	139
2059.02	83
2059.42	151
2059.82	121
2060.21	121
2060.61	143
2061.01	99
2061.4	143
2061.8	121
2062.2	133
2062.59	141
2062.99	111
2063.39	117
2063.79	129
2064.18	113
2064.58	121
2064.97	133
2065.37	129
2065.77	143
2066.16	155
2066.56	119
2066.96	171
2067.35	87
2067.75	119
2068.15	143
2068.54	111
2068.94	165
2069.34	81
2069.73	133
2070.13	129
2070.52	141
2070.92	97
2071.32	157
2071.71	83
2072.11	149
2072.51	129
2072.9	125
2073.3	157
2073.69	57
2074.09	153
2074.49	109
2074.88	151
2075.28	81
2075.67	159
2076.07	77
2076.47	141
2076.86	115
2077.26	99
2077.65	165
2078.05	67
2078.44	151
2078.84	105
2079.23	131
2079.63	111
2080.03	127
2080.42	123
2080.82	155
2081.21	121
2081.61	125
2082	141
2082.4	107
2082.79	159
2083.19	121
2083.58	129
2083.98	117
2084.37	95
2084.77	133
2085.16	147
2085.56	109
2085.95	129
2086.35	121
2086.74	125
2087.14	125
2087.53	145
2087.93	131
2088.32	153
2088.72	125
2089.11	133
2089.51	127
2089.9	97
2090.3	175
2090.69	103
2091.09	163
2091.48	111
2091.88	135
2092.27	109
2092.67	137
2093.06	99
2093.46	143
2093.85	127
2094.25	97
2094.64	197
2095.03	105
2095.43	159
2095.82	117
2096.22	145
2096.61	103
2097.01	133
2097.4	97
2097.79	153
2098.19	135
2098.58	95
2098.98	169
2099.37	71
2099.76	163
2100.16	89
2100.55	127
2100.95	131
2101.34	113
2101.73	119
2102.13	129
2102.52	137
2102.92	95
2103.31	143
2103.7	105
2104.1	157
2104.49	109
2104.88	139
2105.28	145
2105.67	99
2106.07	129
2106.46	139
2106.85	113
2107.25	139
2107.64	127
2108.03	111
2108.43	145
2108.82	107
2109.21	133
2109.61	141
2110	111
2110.39	139
2110.79	145
2111.18	115
2111.57	141
2111.97	103
2112.36	127
2112.75	133
2113.15	105
2113.54	131
2113.93	143
2114.32	117
2114.72	123
2115.11	145
2115.5	101
2115.9	165
2116.29	83
2116.68	151
2117.08	121
2117.47	153
2117.86	125
2118.25	99
2118.65	123
2119.04	105
2119.43	145
2119.82	93
2120.22	177
2120.61	97
2121	177
2121.39	105
2121.79	113
2122.18	151
2122.57	85
2122.96	143
2123.36	79
2123.75	149
2124.14	105
2124.53	157
2124.93	75
2125.32	149
2125.71	127
2126.1	113
2126.49	135
2126.89	79
2127.28	145
2127.67	97
2128.06	153
2128.45	125
2128.85	123
2129.24	103
2129.63	137
2130.02	117
2130.41	133
2130.81	133
2131.2	89
2131.59	145
2131.98	139
2132.37	115
2132.76	153
2133.16	103
2133.55	105
2133.94	133
2134.33	117
2134.72	133
2135.11	117
2135.5	125
2135.9	129
2136.29	115
2136.68	99
2137.07	151
2137.46	93
2137.85	129
2138.24	135
2138.63	121
2139.03	155
2139.42	71
2139.81	113
2140.2	115
2140.59	141
2140.98	101
2141.37	169
2141.76	95
2142.15	151
2142.55	141
2142.94	111
2143.33	175
2143.72	47
2144.11	169
2144.5	99
2144.89	159
2145.28	89
2145.67	123
2146.06	99
2146.45	119
2146.84	121
2147.23	101
2147.62	179
2148.02	61
2148.4	169
2148.8	107
2149.19	135
2149.58	115
2149.97	105
2150.36	123
2150.75	143
2151.14	123
2151.53	111
2151.92	121
2152.31	85
2152.7	133
2153.09	111
2153.48	117
2153.87	113
2154.26	119
2154.65	123
2155.04	137
2155.43	109
2155.82	153
2156.21	141
2156.6	111
2156.99	127
2157.38	133
2157.77	111
2158.16	137
2158.55	83
2158.94	145
2159.33	135
2159.72	101
2160.11	151
2160.5	89
2160.89	133
2161.28	97
2161.66	143
2162.05	97
2162.44	133
2162.83	95
2163.22	123
2163.61	143
2164	81
2164.39	173
2164.78	83
2165.17	155
2165.56	105
2165.95	131
2166.34	131
2166.73	111
2167.11	121
2167.5	129
2167.89	153
2168.28	83
2168.67	171
2169.06	89
2169.45	163
2169.84	89
2170.23	141
2170.62	129
2171	109
2171.39	125
2171.78	131
2172.17	143
2172.56	119
2172.95	147
2173.34	83
2173.73	145
2174.11	99
2174.5	133
2174.89	157
2175.28	93
2175.67	107
2176.06	133
2176.45	113
2176.83	119
2177.22	101
2177.61	119
2178	133
2178.39	117
2178.78	121
2179.16	145
2179.55	113
2179.94	121
2180.33	145
2180.72	115
2181.1	151
2181.49	87
2181.88	137
2182.27	143
2182.66	123
2183.04	147
2183.43	125
2183.82	121
2184.21	117
2184.6	159
2184.98	95
2185.37	169
2185.76	65
2186.15	161
2186.53	109
2186.92	127
2187.31	139
2187.7	87
2188.08	137
2188.47	79
2188.86	149
2189.25	97
2189.63	155
2190.02	75
2190.41	151
2190.8	105
2191.18	115
2191.57	165
2191.96	83
2192.34	141
2192.73	93
2193.12	137
2193.51	115
2193.89	147
2194.28	81
2194.67	163
2195.06	117
2195.44	127
2195.83	151
2196.22	81
2196.6	139
2196.99	99
2197.38	137
2197.76	133
2198.15	125
2198.54	81
2198.92	153
2199.31	123
2199.7	125
2200.08	135
2200.47	97
2200.86	127
2201.24	99
2201.63	113
2202.02	149
2202.4	101
2202.79	115
2203.18	131
2203.56	133
2203.95	147
2204.34	109
2204.72	115
2205.11	119
2205.49	149
2205.88	109
2206.27	159
2206.65	97
2207.04	131
2207.43	145
2207.81	107
2208.2	169
2208.58	71
2208.97	135
2209.36	119
2209.74	155
2210.13	125.5
2210.51	119.1
2210.9	93
2211.29	103
2211.67	141
2212.06	97
2212.44	167
2212.83	47
2213.21	143
2213.6	89
2213.98	127
2214.37	111
2214.76	117
2215.14	101
2215.53	131
2215.91	122.92
2216.3	118.726
2216.69	158.093
2217.07	68.7718
2217.46	144.927
2217.84	120.059
2218.23	138.179
2218.61	128.452
2219	123.312
2219.38	117.582
2219.77	128.839
2220.15	118.686
2220.54	124.847
2220.92	154.561
2221.31	95.3093
2221.69	152.91
2222.08	123.756
2222.46	123.248
2222.85	122.624
2223.23	105.944
2223.62	130.284
2224	122.55
2224.39	101.972
2224.77	144.928
2225.16	111.241
2225.54	114.366
2225.93	129.115
2226.31	134.612
2226.7	103.645
2227.08	104.827
2227.47	113.75
2227.85	103.574
2228.23	148.15
2228.62	103.171
2229	162.699
2229.39	103.416
2229.77	136.727
2230.16	116.445
2230.54	132.876
2230.92	125.623
2231.31	122.534
2231.69	122.625
2232.08	115.371
2232.46	133.26
2232.85	93.841
2233.23	153.142
2233.62	90.5043
2234	135.432
2234.38	109.408
2234.77	123.144
2235.15	117.587
2235.54	118.234
2235.92	125.258
2236.3	116.363
2236.69	134.877
2237.07	117.689
2237.46	139.211
2237.84	111.143
2238.22	125.317
2238.61	101.21
2238.99	128.57
2239.37	119.799
2239.76	122.28
2240.14	131.843
2240.53	118.871
2240.91	125.46
2241.29	114.759
2241.68	130.449
2242.06	119.456
2242.44	117.845
2242.83	118.506
2243.21	136.513
2243.59	147.062
2243.98	104.286
2244.36	140.428
2244.74	95.6916
2245.13	126.246
2245.51	113.021
2245.89	116.157
2246.28	135.28
2246.66	84.4397
2247.04	137.673
2247.43	111.53
2247.81	129.352
2248.19	85.5046
2248.58	134.749
2248.96	104.96
2249.34	138.637
2249.73	120.423
2250.11	106.707
2250.49	146.847
2250.88	75.7948
2251.26	151.551
2251.64	116.341
2252.02	130.118
2252.41	105.375
2252.79	124.417
2252.8	125
2253.18	101
2253.57	159
2253.96	121
2254.35	119
2254.74	139
2255.12	71
2255.51	143
2255.9	101
2256.29	149
2256.67	131
2257.06	115
2257.45	105
2257.84	145
2258.22	113
2258.61	125
2259	151
2259.39	87
2259.77	151
2260.16	125
2260.55	113
2260.94	123
2261.32	99
2261.71	123
2262.1	131
2262.48	113
2262.87	145
2263.26	121
2263.65	119
2264.03	113
2264.42	125
2264.81	95
2265.19	131
2265.58	85
2265.97	143
2266.35	147
2266.74	75
2267.13	167
2267.51	89
2267.9	123
2268.29	99
2268.67	139
2269.06	115
2269.45	135
2269.83	77
2270.22	139
2270.61	149
2270.99	89
2271.38	155
2271.77	73
2272.15	143
2272.54	107
2272.93	141
2273.31	99
2273.7	143
2274.08	119
2274.47	151
2274.86	119
2275.24	75
2275.63	161
2276.02	73
2276.4	147
2276.79	103
2277.17	137
2277.56	135
2277.95	135
2278.33	99
2278.72	143
2279.1	117
2279.49	81
2279.88	175
2280.26	87
2280.65	173
2281.03	101
2281.42	127
2281.8	155
2282.19	107
2282.58	121
2282.96	137
2283.35	121
2283.73	107
2284.12	143
2284.5	91
2284.89	131
2285.28	111
2285.66	127
2286.05	145
2286.43	97
2286.82	105
2287.2	125
2287.59	133
2287.97	153
2288.36	107
2288.74	137
2289.13	131
2289.51	115
2289.9	121
2290.28	157
2290.67	103
2291.05	111
2291.44	129
2291.82	109
2292.21	163
2292.59	67
2292.98	125
2293.36	109
2293.75	135
2294.13	121
2294.52	139
2294.9	95
2295.29	141
2295.67	135
2296.06	101
2296.44	155
2296.83	41
2297.21	147
2297.6	131
2297.98	149
2298.36	115
2298.75	123
2299.13	93
2299.52	133
2299.9	133
2300.29	103
2300.67	167
2301.06	55
2301.44	151
2301.82	127
2302.21	143
2302.59	119
2302.98	113
2303.36	117
2303.75	135
2304.13	125
2304.51	103
2304.9	147
2305.28	67
2305.67	149
2306.05	123
2306.44	117
2306.82	127
2307.2	103
2307.59	131
2307.97	137
2308.35	101
2308.74	157
2309.12	141
2309.51	101
2309.89	143
2310.27	147
2310.66	103
2311.04	125
2311.42	113
2311.81	127
2312.19	149
2312.57	121
2312.96	147
2313.34	87
2313.73	131
2314.11	125
2314.49	151
2314.88	121
2315.26	117
2315.64	117
2316.03	131
2316.41	153
2316.79	93
2317.18	157
2317.56	77
2317.94	135
2318.32	101
2318.71	135
2319.09	121
2319.47	123
2319.86	97
2320.24	141
2320.62	135
2321.01	85
2321.39	181
2321.77	89
2322.15	169
2322.54	103
2322.92	133
2323.3	131
2323.69	119
2324.07	127
2324.45	151
2324.83	125
2325.22	73
2325.6	169
2325.98	63
2326.36	149
2326.75	99
2327.13	161
2327.51	143
2327.89	117
2328.28	129
2328.66	149
2329.04	121
2329.42	113
2329.81	147
2330.19	107
2330.57	161
2330.95	105
2331.33	131
2331.72	155
2332.1	113
2332.48	121
2332.86	127
2333.24	107
2333.63	133
2334.01	99
2334.39	107
2334.77	141
2335.15	105
2335.54	139
2335.92	163
2336.3	113
2336.68	125
2337.06	147
2337.44	115
2337.83	149
2338.21	87
2338.59	125
2338.97	113
2339.35	123
2339.73	111
2340.12	159
2340.5	93
2340.88	113
2341.26	129
2341.64	95
2342.02	165
2342.41	61
2342.79	147
2343.17	111
2343.55	143
2343.93	131
2344.31	125
2344.69	119
2345.07	115
2345.45	165
2345.84	83
2346.22	171
2346.6	55
2346.98	165
2347.36	111
2347.74	147
2348.12	153
2348.5	95
2348.88	113
2349.26	109
2349.65	153
2350.03	107
2350.41	169
2350.79	69
2351.17	155
2351.55	117
2351.93	105
2352.31	129
2352.69	107
2353.07	127
2353.45	121
2353.83	123
2354.21	115
2354.59	131
2354.98	79
2355.35	157
2355.74	121
2356.12	135
2356.5	131
2356.88	115
2357.26	149
2357.64	137
2358.02	111
2358.4	129
2358.78	113
2359.16	107
2359.54	153
2359.92	125
2360.3	133
2360.68	113
2361.06	117
2361.44	143
2361.82	127
2362.2	99
2362.58	167
2362.96	79
2363.34	137
2363.72	129
2364.1	131
2364.48	129
2364.86	97
2365.24	99
2365.62	123
2366	155
2366.38	89
2366.75	189
2367.14	67
2367.51	153
2367.89	115
2368.27	143
2368.65	139
2369.03	75
2369.41	135
2369.79	133
2370.17	157
2370.55	67
2370.93	169
2371.31	83
2371.69	157
2372.07	101
2372.45	129
2372.83	153
2373.2	79
2373.58	139
2373.96	143
2374.34	129
2374.72	91
2375.1	151
2375.48	113
2375.86	149
2376.24	99
2376.61	133
2376.99	157
2377.37	109
2377.75	133
2378.13	123
2378.51	113
2378.89	133
2379.27	125
2379.65	105
2380.02	171
2380.4	105
2380.78	123
2381.16	157
2381.54	119
2381.92	143
2382.3	129
2382.67	119
2383.05	145
2383.43	105
2383.81	121
2384.19	117
2384.57	101
2384.94	131
2385.32	139
2385.7	121
2386.08	115
2386.46	149
2386.83	101
2387.21	175
2387.59	75
2387.97	147
2388.35	133
2388.73	129
2389.1	145
2389.48	111
2389.86	145
2390.24	97
2390.62	155
2390.99	103
2391.37	181
2391.75	75
2392.13	163
2392.5	125
2392.88	115
2393.26	157
2393.64	91
2394.01	137
2394.39	111
2394.77	157
2395.15	125
2395.52	145
2395.9	69
2396.28	179
2396.66	127
2397.04	141
2397.41	133
2397.79	107
2398.17	131
2398.54	123
2398.92	145
2399.3	111
2399.68	131
2400.05	85
2400.43	145
2400.81	127
2401.18	141
2401.56	149
2401.94	109
2402.32	161
2402.69	127
2403.07	139
2403.45	167
2403.82	111
2404.2	91
2404.58	151
2404.95	143
2405.33	141
2405.71	125
2406.09	107
2406.46	149
2406.84	133
2407.22	115
2407.59	167
2407.97	81
2408.34	145
2408.72	141
2409.1	145
2409.47	139
2409.85	109
2410.23	133
2410.6	141
2410.98	169
2411.36	103
2411.73	173
2412.11	89
2412.49	153
2412.86	153
2413.24	147
2413.61	177
2413.99	87
2414.37	141
2414.74	123
2415.12	153
2415.5	95
2415.87	167
2416.25	85
2416.62	157
2417	133
2417.37	119
2417.75	139
2418.13	79
2418.5	155
2418.88	135
2419.25	143
2419.63	81
2420.01	163
2420.38	79
2420.76	163
2421.13	125
2421.51	131
2421.88	181
2422.26	87
2422.64	171
2423.01	139
2423.39	175
2423.76	125
2424.14	145
2424.51	115
2424.89	169
2425.26	113
2425.64	121
2426.01	155
2426.39	101
2426.76	169
2427.14	135
2427.52	135
2427.89	119
2428.26	129
2428.64	125
2429.02	137
2429.39	129
2429.77	145
2430.14	135
2430.52	119
2430.89	171
2431.26	149
2431.64	117
2432.02	155
2432.39	103
2432.77	135
2433.14	165
2433.51	107
2433.89	161
2434.26	123
2434.64	143
2435.01	127
2435.39	171
2435.76	117
2436.14	165
2436.51	111
2436.89	165
2437.26	171
2437.63	113
2438.01	181
2438.38	129
2438.76	171
2439.13	143
2439.51	169
2439.88	153
2440.26	191
2440.63	125
2441	183
2441.38	141
2441.75	123
2442.13	195
2442.5	117
2442.87	193
2443.25	115
2443.62	189
2444	139
2444.37	189
2444.74	155
2445.12	181
2445.49	169
2445.87	137
2446.24	205
2446.61	99
2446.99	217
2447.36	127
2447.73	201
2448.11	153
2448.48	167
2448.86	159
2449.23	179
2449.6	171
2449.98	153
2450.35	185
2450.72	133
2451.1	215
2451.47	145
2451.84	157
2452.22	199
2452.59	149
2452.97	155
2453.34	179
2453.71	149
2454.08	153
2454.46	163
2454.83	165
2455.2	177
2455.58	171
2455.95	151
2456.32	201
2456.7	145
2457.07	157
2457.44	189
2457.82	137
2458.19	199
2458.56	137
2458.93	153
2459.31	183
2459.68	189
2460.05	155
2460.43	199
2460.8	137
2461.17	169
2461.54	181
2461.92	173
2462.29	197
2462.66	113
2463.03	191
2463.41	159
2463.78	191
2464.15	143
2464.52	193
2464.9	115
2465.27	163
2465.64	181
2466.01	129
2466.39	187
2466.76	85
2467.13	187
2467.5	131
2467.88	161
2468.25	141
2468.62	151
2468.99	139
2469.37	181
2469.74	175
2470.11	141
2470.48	199
2470.85	101
2471.22	179
2471.6	141
2471.97	155
2472.34	129
2472.71	137
2473.08	153
2473.46	157
2473.83	183
2474.2	135
2474.57	147
2474.94	113
2475.32	183
2475.69	137
2476.06	159
2476.43	133
2476.8	143
2477.17	153
2477.55	159
2477.92	121
2478.29	169
2478.66	143
2479.03	133
2479.4	167
2479.77	145
2480.15	153
2480.52	161
2480.89	125
2481.26	159
2481.63	151
2482	121
2482.37	173
2482.74	117
2483.12	163
2483.49	161
2483.86	171
2484.23	151
2484.6	137
2484.97	109
2485.34	153
2485.71	165
2486.08	103
2486.46	181
2486.83	95
2487.2	179
2487.57	129
2487.94	161
2488.31	135
2488.68	123
2489.05	139
2489.42	155
2489.79	169
2490.16	71
2490.53	187
2490.9	89
2491.27	177
2491.64	125
2492.01	153
2492.38	157
2492.76	117
2493.13	133
2493.5	143
2493.87	159
2494.24	107
2494.61	173
2494.98	85
2495.35	153
2495.72	121
2496.09	157
2496.46	165
2496.83	123
2497.2	137
2497.57	149
2497.94	141
2498.31	107
2498.68	163
2499.05	107
2499.42	163
2499.79	87
2500.16	121
2500.53	137
2500.9	115
2501.27	159
2501.64	141
2502.01	135
2502.38	143
2502.75	109
2503.12	115
2503.49	151
2503.86	111
2504.23	119
2504.6	155
2504.97	117
2505.34	127
2505.7	139
2506.07	111
2506.44	187
2506.81	93
2507.18	147
2507.55	139
2507.92	119
2508.29	133
2508.66	141
2509.03	153
2509.4	115
2509.77	143
2510.14	113
2510.5	167
2510.88	95
2511.24	153
2511.61	133
2511.98	131
2512.35	163
2512.72	107
2513.09	133
2513.46	123
2513.83	149
2514.2	117
2514.56	185
2514.93	85
2515.3	181
2515.67	133
2516.04	131
2516.41	173
2516.78	127
2517.15	139
2517.51	117
2517.88	155
2518.25	117
2518.62	155
2518.99	99
2519.36	167
2519.73	119
2520.09	139
2520.46	149
2520.83	121
2521.2	153
2521.57	123
2521.94	145
2522.3	141
2522.67	135
2523.04	99
2523.41	151
2523.78	127
2524.15	143
2524.51	151
2524.88	119
2525.25	141
2525.62	131
2525.98	127
2526.35	157
2526.72	97
2527.09	133
2527.46	175
2527.83	143
2528.19	147
2528.56	121
2528.93	139
2529.3	129
2529.66	155
2530.03	109
2530.4	183
2530.77	67
2531.13	129
2531.5	123
2531.87	117
2532.24	157
2532.61	85
2532.97	153
2533.34	137
2533.71	131
2534.07	101
2534.44	171
2534.81	105
2535.18	147
2535.54	137
2535.91	127
2536.28	161
2536.65	91
2537.01	155
2537.38	131
2537.75	153
2538.11	89
2538.48	167
2538.85	107
2539.22	165
2539.58	129
2539.95	123
2540.32	149
2540.68	97
2541.05	173
2541.42	119
2541.78	141
2542.15	89
2542.52	139
2542.89	125
2543.25	175
2543.62	133
2543.99	119
2544.35	137
2544.72	83
2545.08	149
2545.45	119
2545.82	137
2546.19	127
2546.55	129
2546.92	123
2547.28	141
2547.65	113
2548.02	143
2548.38	139
2548.75	113
2549.12	139
2549.48	149
2549.85	119
2550.21	157
2550.58	83
2550.95	133
2551.31	141
2551.68	105
2552.05	141
2552.41	135
2552.78	143
2553.14	107
2553.51	151
2553.88	109
2554.24	149
2554.61	83
2554.97	139
2555.34	139
2555.71	91
2556.07	155
2556.44	105
2556.8	151
2557.17	105
2557.53	153
2557.9	129
2558.27	175
2558.63	101
2559	161
2559.36	145
2559.73	111
2560.09	161
2560.46	85
2560.82	145
2561.19	101
2561.55	163
2561.92	125
2562.29	149
2562.65	93
2563.02	161
2563.38	125
2563.75	115
2564.11	173
2564.48	77
2564.84	157
2565.21	93
2565.57	144.678
2565.94	115.166
2566.3	127.378
2566.67	91.6863
2567.03	138.243
2567.4	128.761
2567.76	102.891
2568.13	156.019
2568.49	102.235
2568.86	161.367
2569.22	109.727
2569.59	132.18
2569.95	155.61
2570.32	129.054
2570.68	109.063
2571.05	145.017
2571.41	126.737
2571.78	149.075
2572.14	140.346
2572.51	115.087
2572.87	128.339
2573.23	125.23
2573.6	126.924
2573.96	149.299
2574.33	113.891
2574.69	110.297
2575.06	126.07
2575.42	106.296
2575.79	142.166
2576.15	123.884
2576.51	111.693
2576.88	131.245
2577.24	130.971
2577.61	123.09
2577.97	157.222
2578.34	111.606
2578.7	136.676
2579.06	153.471
2579.43	124.124
2579.79	150.183
2580.16	106.386
2580.52	163.081
2580.88	132.046
2581.25	139.908
2581.61	121.446
2581.98	155.269
2582.34	113.205
2582.7	130.918
2583.07	139.644
2583.43	108.1
2583.8	163.273
2584.16	99.4493
2584.52	150.398
2584.89	120.001
2585.25	132.907
2585.61	130.177
2585.98	138.404
2586.34	123.893
2586.7	111.927
2587.07	149.908
2587.43	105.414
2587.8	165.702
2588.16	107.487
2588.52	173.402
2588.88	134.798
2589.25	133.227
2589.61	141.714
2589.97	146.307
2590.34	157.78
2590.7	123.486
2591.06	167.853
2591.43	106.462
2591.79	175.896
2592.15	116.701
2592.52	158.47
2592.88	166.91
2593.24	99.406
2593.61	141.374
2593.97	132.342
2594.33	152.946
2594.7	104.286
2595.06	154.272
2595.42	120.055
2595.78	166.114
2596.15	121.055
2596.51	131.645
2596.87	158.328
2597.24	118.518
2597.6	160.978
2597.96	155.044
2598.32	140.408
2598.69	144.554
2599.05	156.55
2599.41	137.561
2599.78	165.353
2600.14	119.858
2600.5	125.889
2600.86	164.831
2600.95	175
2601.31	133
2601.68	147
2602.05	139
2602.42	125
2602.78	151
2603.15	121
2603.52	149
2603.89	161
2604.25	129
2604.62	165
2604.99	135
2605.35	149
2605.72	139
2606.09	173
2606.46	123
2606.82	193
2607.19	95
2607.56	159
2607.92	159
2608.29	121
2608.66	165
2609.03	143
2609.39	163
2609.76	139
2610.13	189
2610.49	119
2610.86	197
2611.23	99
2611.59	189
2611.96	157
2612.33	139
2612.69	177
2613.06	125
2613.43	191
2613.79	131
2614.16	197
2614.53	135
2614.89	201
2615.26	119
2615.62	197
2615.99	135
2616.36	159
2616.72	185
2617.09	137
2617.46	185
2617.82	147
2618.19	191
2618.56	147
2618.92	179
2619.29	115
2619.65	193
2620.02	163
2620.39	183
2620.75	199
2621.12	147
2621.48	171
2621.85	159
2622.22	187
2622.58	169
2622.95	167
2623.31	139
2623.68	207
2624.04	167
2624.41	177
2624.78	185
2625.14	145
2625.51	197
2625.87	203
2626.24	171
2626.6	199
2626.97	155
2627.34	165
2627.7	177
2628.07	187
2628.43	187
2628.8	171
2629.16	159
2629.53	201
2629.9	211
2630.26	169
2630.63	247
2630.99	167
2631.36	217
2631.72	205
2632.09	201
2632.45	215
2632.82	173
2633.18	207
2633.55	215
2633.91	241
2634.28	167
2634.64	253
2635.01	157
2635.37	245
2635.74	221
2636.1	203
2636.47	261
2636.83	177
2637.2	245
2637.56	223
2637.93	251
2638.29	203
2638.66	249
2639.02	177
2639.39	267
2639.75	235
2640.12	235
2640.48	275
2640.84	197
2641.21	267
2641.57	231
2641.94	269
2642.3	259
2642.67	299
2643.03	259
2643.4	295
2643.76	259
2644.13	259
2644.49	309
2644.85	231
2645.22	295
2645.58	273
2645.95	273
2646.31	253
2646.68	311
2647.04	283
2647.4	323
2647.77	317
2648.13	305
2648.5	297
2648.86	255
2649.22	341
2649.59	323
2649.95	331
2650.32	329
2650.68	297
2651.04	341
2651.41	365
2651.77	343
2652.14	381
2652.5	335
2652.86	385
2653.23	371
2653.59	397
2653.95	333
2654.32	411
2654.68	353
2655.05	379
2655.41	391
2655.77	379
2656.14	439
2656.5	371
2656.86	377
2657.23	401
2657.59	401
2657.95	387
2658.32	451
2658.68	383
2659.04	449
2659.41	475
2659.77	423
2660.13	501
2660.5	453
2660.86	455
2661.22	451
2661.59	543
2661.95	471
2662.31	515
2662.68	447
2663.04	505
2663.4	507
2663.76	493
2664.13	557
2664.49	513
2664.85	553
2665.22	489
2665.58	609
2665.94	559
2666.3	595
2666.67	567
2667.03	631
2667.39	607
2667.76	573
2668.12	635
2668.48	623
2668.84	641
2669.21	613
2669.57	681
2669.93	667
2670.29	659
2670.66	623
2671.02	691
2671.38	707
2671.74	659
2672.11	691
2672.47	631
2672.83	717
2673.19	659
2673.56	673
2673.92	733
2674.28	707
2674.64	711
2675	715
2675.37	745
2675.73	755
2676.09	725
2676.45	751
2676.81	759
2677.18	759
2677.54	791
2677.9	771
2678.26	755
2678.62	751
2678.99	831
2679.35	753
2679.71	827
2680.07	763
2680.43	773
2680.8	809
2681.16	841
2681.52	783
2681.88	781
2682.24	797
2682.6	793
2682.97	779
2683.33	771
2683.69	797
2684.05	661
2684.41	811
2684.77	727
2685.13	829
2685.5	809
2685.86	765
2686.22	733
2686.58	737
2686.94	813
2687.3	779
2687.66	829
2688.03	663
2688.39	833
2688.75	757
2689.11	757
2689.47	703
2689.83	721
2690.19	705
2690.55	733
2690.91	697
2691.28	659
2691.64	751
2692	623
2692.36	707
2692.72	675
2693.08	647
2693.44	635
2693.8	607
2694.16	635
2694.52	653
2694.88	655
2695.24	559
2695.61	643
2695.97	543
2696.33	601
2696.69	609
2697.05	595
2697.41	569
2697.77	537
2698.13	511
2698.49	583
2698.85	541
2699.21	591
2699.57	529
2699.93	517
2700.29	519
2700.65	515
2701.01	479
2701.37	487
2701.73	453
2702.09	519
2702.45	469
2702.81	437
2703.18	495
2703.53	399
2703.89	419
2704.25	439
2704.62	463
2704.98	433
2705.33	439
2705.69	391
2706.06	399
2706.42	393
2706.78	331
2707.13	421
2707.49	355
2707.85	409
2708.22	359
2708.57	435
2708.93	341
2709.29	351
2709.65	343
2710.01	347
2710.37	355
2710.73	279
2711.09	411
2711.45	283
2711.81	385
2712.17	275
2712.53	313
2712.89	305
2713.25	277
2713.61	259
2713.97	297
2714.33	297
2714.69	251
2715.05	313
2715.41	251
2715.76	341
2716.12	229
2716.48	313
2716.84	297
2717.2	291
2717.56	251
2717.92	249
2718.28	267
2718.64	249
2719	291
2719.35	219
2719.71	283
2720.07	213
2720.43	271
2720.79	231
2721.15	231
2721.51	213
2721.87	239
2722.23	249
2722.59	229
2722.94	249
2723.3	215
2723.66	251
2724.02	199
2724.38	237
2724.74	241
2725.1	169
2725.46	211
2725.81	223
2726.17	241
2726.53	231
2726.89	221
2727.25	211
2727.61	213
2727.96	199
2728.32	193
2728.68	213
2729.04	185
2729.4	199
2729.75	219
2730.11	209
2730.47	235
2730.83	161
2731.19	207
2731.55	213
2731.91	203
2732.26	171
2732.62	203
2732.98	187
2733.34	167
2733.69	221
2734.05	145
2734.41	239
2734.77	125
2735.13	215
2735.48	173
2735.84	185
2736.2	195
2736.56	181
2736.91	179
2737.27	177
2737.63	195
2737.99	151
2738.35	217
2738.7	97
2739.06	209
2739.42	151
2739.78	191
2740.13	169
2740.49	173
2740.85	159
2741.21	161
2741.56	205
2741.92	137
2742.28	227
2742.64	105
2742.99	213
2743.35	179
2743.71	183
2744.06	191
2744.42	151
2744.78	169
2745.14	147
2745.49	185
2745.85	149
2746.21	173
2746.57	109
2746.92	183
2747.28	145
2747.64	179
2747.99	179
2748.35	121
2748.71	169
2749.06	159
2749.42	141
2749.78	159
2750.13	147
2750.49	117
2750.85	185
2751.2	153
2751.56	153
2751.92	161
2752.27	143
2752.63	161
2752.99	173
2753.34	147
2753.7	193
2754.06	139
2754.41	143
2754.77	153
2755.13	155
2755.48	149
2755.84	137
2756.2	131
2756.55	141
2756.91	151
2757.26	117
2757.62	179
2757.98	93
2758.33	197
2758.69	139
2759.04	167
2759.4	151
2759.76	107
2760.11	127
2760.47	165
2760.83	173
2761.18	99
2761.54	189
2761.89	93
2762.25	193
2762.61	127
2762.96	161
2763.32	157
2763.67	113
2764.03	153
2764.38	159
2764.74	159
2765.1	107
2765.45	179
2765.81	113
2766.16	189
2766.52	123
2766.88	137
2767.23	173
2767.59	115
2767.94	159
2768.3	147
2768.65	167
2769.01	101
2769.36	147
2769.72	113
2770.07	167
2770.43	107
2770.78	161
2771.14	163
2771.49	115
2771.85	137
2772.21	139
2772.56	149
2772.92	167
2773.27	163
2773.63	133
2773.98	155
2774.34	105
2774.69	149
2775.05	171
2775.4	127
2775.76	153
2776.11	157
2776.47	117
2776.82	159
2777.18	101
2777.53	167
2777.89	141
2778.24	151
2778.59	133
2778.95	147
2779.3	135
2779.66	123
2780.01	155
2780.37	111
2780.72	205
2781.08	97
2781.43	189
2781.79	119
2782.14	157
2782.49	179
2782.85	139
2783.2	143
2783.56	109
2783.91	167
2784.27	93
2784.62	175
2784.98	91
2785.33	157
2785.68	131
2786.04	147
2786.39	165
2786.75	109
2787.1	133
2787.46	143
2787.81	147
2788.16	113
2788.52	179
2788.87	77
2789.22	181
2789.58	151
2789.93	147
2790.29	153
2790.64	111
2790.99	139
2791.35	117
2791.7	131
2792.06	123
2792.41	145
2792.76	111
2793.12	179
2793.47	143
2793.82	147
2794.18	141
2794.53	111
2794.88	143
2795.24	147
2795.59	133
2795.95	153
2796.3	127
2796.65	139
2797.01	135
2797.36	149
2797.71	131
2798.07	125
2798.42	117
2798.77	151
2799.13	151
2799.48	109
2799.83	175
2800.19	97
2800.54	141
2800.89	147
2801.24	141
2801.6	123
2801.95	99
2802.3	141
2802.66	147
2803.01	151
2803.36	91
2803.72	163
2804.07	93
2804.42	155
2804.77	131
2805.13	137
2805.48	141
2805.83	93
2806.19	151
2806.54	137
2806.89	155
2807.24	89
2807.6	167
2807.95	87
2808.3	185
2808.65	145
2809.01	131
2809.36	175
2809.71	85
2810.06	145
2810.42	125
2810.77	155
2811.12	91
2811.47	161
2811.83	109
2812.18	173
2812.53	109
2812.88	119
2813.24	157
2813.59	77
2813.94	149
2814.29	129
2814.64	143
2815	111
2815.35	163
2815.7	121
2816.05	161
2816.4	117
2816.76	121
2817.11	159
2817.46	123
2817.81	145
2818.16	123
2818.52	125
2818.87	133
2819.22	133
2819.57	145
2819.92	161
2820.28	129
2820.63	137
2820.98	153
2821.33	119
2821.68	137
2822.03	149
2822.39	107
2822.74	159
2823.09	95
2823.44	143
2823.79	147
2824.14	121
2824.49	137
2824.85	113
2825.2	131
2825.55	105
2825.9	153
2826.25	109
2826.6	153
2826.95	83
2827.31	159
2827.66	147
2828.01	115
2828.36	157
2828.71	117
2829.06	145
2829.41	111
2829.76	173
2830.11	105
2830.46	195
2830.82	89
2831.17	159
2831.52	111
2831.87	117
2832.22	157
2832.57	79
2832.92	141
2833.27	89
2833.62	159
2833.97	101
2834.32	153
2834.68	67
2835.03	149
2835.38	127
2835.73	123
2836.08	167
2836.43	105
2836.78	143
2837.13	107
2837.48	151
2837.83	127
2838.18	147
2838.53	91
2838.88	157
2839.23	149
2839.58	115
2839.93	143
2840.28	115
2840.63	143
2840.98	123
2841.33	117
2841.68	147
2842.03	127
2842.38	121
2842.73	145
2843.08	125
2843.43	131
2843.78	117
2844.13	107
2844.48	137
2844.83	135
2845.18	123
2845.53	169
2845.88	81
2846.23	133
2846.58	143
2846.93	131
2847.28	127
2847.63	113
2847.98	131
2848.33	121
2848.68	155
2849.03	95
2849.38	177
2849.73	95
2850.08	145
2850.43	117
2850.78	125
2851.13	133
2851.48	99
2851.83	153
2852.18	121
2852.53	149
2852.88	91
2853.23	181
2853.57	89
2853.92	147
2854.27	107
2854.62	109
2854.97	181
2855.32	87
2855.67	159
2856.02	119
2856.37	157
2856.72	113
2857.07	149
2857.42	105
2857.76	153
2858.11	131
2858.46	117
2858.81	159
2859.16	103
2859.51	141
2859.86	143
2860.21	167
2860.56	101
2860.91	121
2861.25	119
2861.6	159
2861.95	121
2862.3	119
2862.65	137
2863	111
2863.35	129
2863.69	131
2864.04	117
2864.39	123
2864.74	109
2865.09	99
2865.44	147
2865.78	109
2866.13	129
2866.48	117
2866.83	115
2867.18	123
2867.53	147
2867.88	103
2868.22	153
2868.57	95
2868.92	157
2869.27	127
2869.62	105
2869.96	149
2870.31	101
2870.66	135
2871.01	95
2871.36	151
2871.7	123
2872.05	187
2872.4	77
2872.75	145
2873.1	117
2873.44	109
2873.79	155
2874.14	103
2874.49	139
2874.84	83
2875.18	141
2875.53	101
2875.88	145
2876.23	131
2876.57	149
2876.92	127
2877.27	81
2877.62	143
2877.97	81
2878.31	151
2878.66	97
2879.01	153
2879.36	105
2879.7	159
2880.05	107
2880.4	151
2880.74	127
2881.09	117
2881.44	165
2881.79	75
2882.13	151
2882.48	89
2882.83	135
2883.18	125
2883.52	129
2883.87	99
2884.22	149
2884.56	149
2884.91	119
2885.26	163
2885.61	99
2885.95	149
2886.3	101
2886.65	141
2886.99	141
2887.34	103
2887.69	109
2888.03	157
2888.38	129
2888.73	127
2889.07	131
2889.42	95
2889.77	131
2890.11	125
2890.46	117
2890.81	157
2891.15	99
2891.5	125
2891.85	125
2892.19	105
2892.54	141
2892.89	93
2893.23	135
2893.58	101
2893.93	135
2894.27	115
2894.62	159
2894.96	93
2895.31	121
2895.66	153
2896	121
2896.35	168.6
2896.7	69.6329
2897.04	157.788
2897.39	118.014
2897.73	147.156
2898.08	122.555
2898.43	138.501
2898.77	95.3551
2899.12	124.717
2899.46	149.217
2899.81	105.499
2900.16	162.812
2900.5	66.9835
2900.85	161.474
2901.19	119.497
2901.54	135.606
2901.88	105.985
2902.23	141.195
2902.58	103.217
2902.92	130.164
2903.27	133.402
2903.61	101.997
2903.96	160.763
2904.31	66.8382
2904.65	141.795
2905	111.357
2905.34	146.062
2905.69	116.205
2906.03	110.687
2906.38	117.942
2906.72	114.943
2907.07	152.073
2907.42	108.635
2907.76	147.969
2908.11	84.2805
2908.45	157.949
2908.8	137.559
2909.14	136.95
2909.49	123.31
2909.83	109.524
2910.18	141.489
2910.52	106.586
2910.87	124.702
2911.21	133.23
2911.56	128.955
2911.9	106.544
2912.25	116.35
2912.59	125.558
2912.94	129.405
2913.28	121.472
2913.63	121.104
2913.97	131.119
2914.32	129.292
2914.66	117.515
2915.01	140.719
2915.35	128.242
2915.7	130.895
2916.04	123.081
2916.39	126.125
2916.73	136.51
2917.08	111.239
2917.42	120.435
2917.77	117.67
2918.11	125.765
2918.46	119.004
2918.8	142.87
2919.15	110.267
2919.49	133.425
2919.83	112.81
2920.18	124.559
2920.52	131.889
2920.87	123.018
2921.21	130.92
2921.56	127.54
2921.9	125.924
2922.24	130.675
2922.59	138.72
2922.93	120.211
2923.28	133.902
2923.62	112.671
2923.97	116.609
2924.31	129.083
2924.65	119.329
2925	118.714
2925.34	144.157
2925.69	113.376
2926.03	131.984
2926.38	127.955
2926.72	132.174
2927.06	117.836
2927.41	104.276
2927.75	100.735
2928.09	139
2928.44	126.176
2928.78	109.065
2929.13	143.202
2929.47	84.0228
2929.81	157.413
2930.16	104.753
2930.5	137.381
2930.79	141
2931.14	103
2931.49	103
2931.84	143
2932.19	121
2932.54	91
2932.88	157
2933.23	111
2933.58	167
2933.93	91
2934.28	155
2934.63	151
2934.97	107
2935.32	111
2935.67	137
2936.02	123
2936.37	113
2936.71	145
2937.06	99
2937.41	143
2937.76	81
2938.11	121
2938.46	155
2938.8	101
2939.15	119
2939.5	133
2939.85	127
2940.19	133
2940.54	113
2940.89	127
2941.24	131
2941.59	115
2941.93	129
2942.28	159
2942.63	91
2942.98	135
2943.32	151
2943.67	133
2944.02	177
2944.37	79
2944.72	153
2945.06	127
2945.41	141
2945.76	109
2946.11	149
2946.45	95
2946.8	115
2947.15	135
2947.49	93
2947.84	159
2948.19	79
2948.54	145
2948.88	143
2949.23	137
2949.58	119
2949.93	147
2950.27	111
2950.62	113
2950.97	131
2951.31	105
2951.66	191
2952.01	57
2952.35	155
2952.7	121
2953.05	143
2953.4	127
2953.74	131
2954.09	93
2954.44	159
2954.78	135
2955.13	119
2955.48	155
2955.82	43
2956.17	171
2956.52	111
2956.86	149
2957.21	117
2957.56	113
2957.9	107
2958.25	123
2958.6	125
2958.94	129
2959.29	157
2959.64	59
2959.98	137
2960.33	107
2960.68	113
2961.02	127
2961.37	89
2961.72	129
2962.06	141
2962.41	121
2962.76	149
2963.1	119
2963.45	113
2963.79	131
2964.14	131
2964.49	101
2964.83	131
2965.18	111
2965.52	135
2965.87	147
2966.22	85
2966.56	143
2966.91	113
2967.25	143
2967.6	121
2967.95	153
2968.29	111
2968.64	135
2968.98	107
2969.33	139
2969.68	123
2970.02	85
2970.37	169
2970.71	91
2971.06	165
2971.4	109
2971.75	167
2972.1	99
2972.44	161
2972.79	87
2973.13	175
2973.48	125
2973.82	87
2974.17	193
2974.51	101
2974.86	151
2975.21	101
2975.55	155
2975.9	95
2976.24	135.36
2976.59	168.5
2976.93	157.3
2977.28	155
2977.62	99
2977.97	157
2978.31	77
2978.66	155
2979	87
2979.35	147
2979.69	137
2980.04	127
2980.38	113
2980.73	135
2981.07	147
2981.42	113
2981.76	161
2982.11	107
2982.45	161
2982.8	113
2983.14	129
2983.49	133
2983.83	109
2984.18	117
2984.52	137
2984.87	129
2985.21	141
2985.56	131
2985.9	117
2986.25	131
2986.59	105
2986.94	125
2987.28	143
2987.62	105
2987.97	113
2988.31	167
2988.66	123
2989	137
2989.35	91
2989.69	115
2990.03	121
2990.38	137
2990.72	113
2991.07	167
2991.41	87
2991.76	139
2992.1	125
2992.44	105
2992.79	153
2993.13	85
2993.48	149
2993.82	129
2994.17	165
2994.51	101
2994.85	163
2995.2	79
2995.54	145
2995.89	119
2996.23	99
2996.57	177
2996.92	61
2997.26	143
2997.6	115
2997.95	149
2998.29	107
2998.64	151
2998.98	93
2999.32	141
2999.67	125
