#Acq. time (s)=	30
#Accumulations=	1
#Range (cm-¹)=	1050...3000 (30 s) 
#Windows=	6
#Auto scanning=	Off
#Autofocus=	Off
#AutoExposure=	Off
#Spike filter=	Off
#Delay time (s)=	0
#Binning=	1
#Readout mode=	Signal
#DeNoise=	Off
#ICS correction=	Off
#Dark correction=	Off
#Inst. Process=	Off
#Detector Gain=	High Sensitivity
#Detector ADC=	45 kHz       
#Detector temperature (°C)=	-60.1
#Instrument=	LabRAM
#Detector=	Syncerity
#Objective=	x50LWD
#Grating=	1800
#Filter=	25%
#Laser (nm)=	532
#Hole=	100
#E-Cal_Neon=	0
#StageXY=	Marzhauser
#StageZ=	Marzhauser
#X (µm)=	0
#Y (µm)=	0
#Z (µm)=	-1678.85
#Spectral res.(cm-¹)=	1.9
#Full time(mm:ss)=	3:10
#AC=	Not calibrated
#Project=	
#Sample=	
#Site=	
#Title=	Spot 1 450K
#Remark=	
#Date=	19.02.2026 11:40
#Acquired=	19.02.2026 11:40:52
#Edit:Spike=	19.02.2026 11:41:24
#Edit:Spike=	19.02.2026 11:45:30
#Edit:Spike=	19.02.2026 11:45:34
#AxisType[0]=Intens
#AxisUnit[0]=Cnt
#AxisType[1]=Spectr
#AxisUnit[1]=1/cm
1050.13	105
1050.59	125
1051.05	95
1051.51	139
1051.97	131
1052.44	127
1052.9	123
1053.36	123
1053.82	103
1054.28	149
1054.74	141
1055.2	127
1055.67	127
1056.13	87
1056.59	159
1057.05	141
1057.51	107
1057.97	149
1058.43	95
1058.89	123
1059.36	125
1059.82	129
1060.28	109
1060.74	133
1061.2	99
1061.66	121
1062.12	149
1062.58	109
1063.04	147
1063.5	105
1063.96	123
1064.43	117
1064.89	139
1065.35	109
1065.81	135
1066.27	97
1066.73	133
1067.19	143
1067.65	95
1068.11	155
1068.57	87
1069.03	137
1069.49	103
1069.95	153
1070.41	107
1070.87	165
1071.33	107
1071.79	187
1072.25	127
1072.71	85
1073.17	167
1073.63	75
1074.09	137
1074.55	93
1075.01	149
1075.47	125
1075.93	141
1076.39	95
1076.85	153
1077.31	149
1077.77	85
1078.23	167
1078.69	71
1079.15	153
1079.61	99
1080.07	143
1080.53	113
1080.99	127
1081.45	97
1081.91	141
1082.37	115
1082.83	101
1083.29	159
1083.75	89
1084.21	147
1084.66	103
1085.12	125
1085.58	117
1086.04	133
1086.5	81
1086.96	143
1087.42	129
1087.88	103
1088.34	141
1088.8	81
1089.25	143
1089.71	107
1090.17	143
1090.63	129
1091.09	109
1091.55	97
1092.01	135
1092.47	123
1092.92	121
1093.38	119
1093.84	85
1094.3	145
1094.76	131
1095.22	115
1095.68	147
1096.13	95
1096.59	119
1097.05	139
1097.51	143
1097.97	133
1098.43	115
1098.88	103
1099.34	129
1099.8	151
1100.26	99
1100.72	118.6
1101.17	75
1101.63	139
1102.09	127
1102.55	131
1103.01	121
1103.46	113
1103.92	119
1104.38	117
1104.84	129
1105.29	83
1105.75	171
1106.21	77
1106.67	135
1107.12	127
1107.58	133
1108.04	105
1108.5	125
1108.95	105
1109.41	157
1109.87	151
1110.33	79
1110.78	165
1111.24	79
1111.7	111
1112.16	85
1112.61	147
1113.07	105
1113.53	137
1113.98	99
1114.44	123
1114.9	139
1115.35	114.5
1115.81	126.5
1116.27	85
1116.72	159
1117.18	93
1117.64	123
1118.1	119
1118.55	111
1119.01	101
1119.47	145
1119.92	117
1120.38	109
1120.84	153
1121.29	107
1121.75	151
1122.2	105
1122.66	131
1123.12	143
1123.57	121
1124.03	123
1124.49	161
1124.94	123
1125.4	109
1125.86	141
1126.31	115
1126.77	147
1127.22	117
1127.68	117
1128.14	137
1128.59	107
1129.05	103
1129.5	125
1129.96	113
1130.41	127
1130.87	127
1131.33	77
1131.78	131
1132.24	133
1132.69	97
1133.15	179
1133.61	103
1134.06	123
1134.52	131
1134.97	127
1135.43	133
1135.88	103
1136.34	127
1136.79	121
1137.25	153
1137.7	89
1138.16	163
1138.61	77
1139.07	133
1139.52	135
1139.98	129
1140.43	143
1140.89	97
1141.34	133
1141.8	119
1142.25	125
1142.71	99
1143.16	143
1143.62	87
1144.07	149
1144.53	103
1144.98	121
1145.44	141
1145.89	79
1146.35	137
1146.8	107
1147.26	139
1147.71	79
1148.16	167
1148.62	67
1149.07	179
1149.53	135
1149.98	127
1150.44	143
1150.89	97
1151.35	145
1151.8	121
1152.25	141
1152.71	73
1153.16	175
1153.62	75
1154.07	177
1154.52	107
1154.98	113
1155.43	129
1155.89	77
1156.34	127
1156.79	121
1157.25	133
1157.7	103
1158.16	133
1158.61	83
1159.06	145
1159.52	103
1159.97	123
1160.42	149
1160.88	89
1161.33	125
1161.78	133
1162.24	109
1162.69	99
1163.14	143
1163.6	117
1164.05	153
1164.5	87
1164.96	129
1165.41	163
1165.86	119
1166.32	125
1166.77	109
1167.22	145
1167.68	139
1168.13	145
1168.58	101
1169.04	145
1169.49	107
1169.94	109
1170.39	123
1170.85	107
1171.3	117
1171.75	135
1172.2	113
1172.66	131
1173.11	99
1173.56	129
1174.01	137
1174.47	127
1174.92	111
1175.37	157
1175.82	107
1176.28	117
1176.73	155
1177.18	97
1177.63	159
1178.09	79
1178.54	153
1178.99	131
1179.44	139
1179.89	107
1180.35	165
1180.8	89
1181.25	127
1181.7	141
1182.15	121
1182.61	159
1183.06	75
1183.51	137
1183.96	111
1184.41	155
1184.87	99
1185.32	141
1185.77	93
1186.22	125
1186.67	125
1187.12	95
1187.58	161
1188.03	53
1188.48	149
1188.93	109
1189.38	153
1189.83	85
1190.28	161
1190.73	97
1191.19	149
1191.64	127
1192.09	107
1192.54	189
1192.99	63
1193.44	163
1193.89	111
1194.34	135
1194.8	93
1195.25	125
1195.7	103
1196.15	137
1196.6	121
1197.05	105
1197.5	143
1197.95	73
1198.4	167
1198.85	115
1199.3	129
1199.75	103
1200.2	125
1200.66	103
1201.11	157
1201.56	119
1202.01	121
1202.46	137
1202.91	87
1203.36	133
1203.81	127
1204.26	113
1204.71	121
1205.16	123
1205.61	121
1206.06	151
1206.51	95
1206.96	131
1207.41	145
1207.86	99
1208.31	109
1208.76	119
1209.21	115
1209.66	141
1210.11	109
1210.56	121
1211.01	131
1211.46	119
1211.91	123
1212.36	125
1212.81	99
1213.26	109
1213.71	159
1214.16	105
1214.61	165
1215.05	75
1215.51	131
1215.95	119
1216.4	137
1216.85	131
1217.3	123
1217.75	127
1218.2	109
1218.65	163
1219.1	85
1219.55	161
1220	61
1220.45	169
1220.9	117
1221.34	135
1221.79	109
1222.24	135
1222.69	105
1223.14	111
1223.59	147
1224.04	115
1224.49	165
1224.94	35
1225.38	153
1225.83	109
1226.28	137
1226.73	99
1227.18	119
1227.63	93
1228.07	125
1228.52	135
1228.97	109
1229.42	157
1229.87	39
1230.32	171
1230.76	101
1231.21	141
1231.66	123
1232.11	127
1232.56	131
1233.01	151
1233.45	127
1233.9	107
1234.35	167
1234.8	71
1235.25	155
1235.69	137
1236.14	133
1236.59	111
1237.04	107
1237.49	131
1237.93	165
1238.38	107
1238.83	139
1239.28	117
1239.72	79
1240.17	147
1240.62	121
1241.07	115
1241.51	119
1241.96	131
1242.41	131
1242.86	127
1243.3	115
1243.75	139
1244.2	135
1244.65	119
1245.09	135
1245.54	125
1245.99	109
1246.44	133
1246.88	99
1247.33	151
1247.78	153
1248.22	101
1248.67	129
1249.12	109
1249.56	133
1250.01	101
1250.46	151
1250.9	87
1251.35	155
1251.8	67
1252.24	147
1252.69	127
1253.14	93
1253.58	147
1254.03	111
1254.48	143
1254.92	95
1255.37	147
1255.82	103
1256.26	163
1256.71	95
1257.15	153
1257.6	143
1258.05	99
1258.49	157
1258.94	87
1259.39	139
1259.83	103
1260.28	159
1260.72	103
1261.17	155
1261.62	79
1262.06	147
1262.51	111
1262.95	113
1263.4	139
1263.85	107
1264.29	125
1264.74	97
1265.18	141
1265.63	105
1266.07	171
1266.52	51
1266.97	157
1267.41	117
1267.86	129
1268.3	155
1268.75	93
1269.19	155
1269.64	85
1270.08	161
1270.53	107
1270.97	135
1271.42	83
1271.86	157
1272.31	139
1272.76	121
1273.2	159
1273.64	77
1274.09	135
1274.53	113
1274.98	127
1275.42	121
1275.87	127
1276.31	87
1276.76	147
1277.2	123
1277.65	127
1278.09	123
1278.54	99
1278.98	129
1279.43	123
1279.87	133
1280.32	137
1280.76	111
1281.21	91
1281.65	141
1282.09	123
1282.54	119
1282.98	139
1283.43	121
1283.87	151
1284.32	147
1284.76	107
1285.21	151
1285.65	97
1286.09	115
1286.54	137
1286.98	147
1287.42	121
1287.87	135
1288.31	113
1288.76	137
1289.2	133
1289.64	79
1290.09	155
1290.53	93
1290.98	149
1291.42	131
1291.86	137
1292.31	131
1292.75	123
1293.19	113
1293.64	135
1294.08	143
1294.53	85
1294.97	175
1295.41	77
1295.85	169
1296.3	115
1296.74	137
1297.19	117
1297.63	127
1298.07	113
1298.51	137
1298.96	147
1299.4	93
1299.84	167
1300.29	61
1300.73	157
1301.17	89
1301.62	143
1302.06	121
1302.5	143
1302.94	99
1303.39	145
1303.83	117
1304.27	95
1304.72	141
1305.16	63
1305.6	147
1306.04	87
1306.49	141
1306.93	121
1307.37	123
1307.81	109
1308.26	159
1308.7	143
1309.14	129
1309.58	149
1310.03	95
1310.47	159
1310.91	109
1311.35	135
1311.8	151
1312.24	123
1312.68	111
1313.12	137
1313.56	133
1314	139
1314.45	131
1314.89	119
1315.33	133
1315.77	133
1316.22	131
1316.66	149
1317.1	109
1317.54	109
1317.98	159
1318.43	133
1318.87	139
1319.31	103
1319.75	115
1320.19	155
1320.63	141
1321.07	117
1321.51	179
1321.96	93
1322.4	145
1322.84	127
1323.28	135
1323.72	137
1324.16	121
1324.6	123
1325.05	163
1325.49	147
1325.93	119
1326.37	183
1326.81	89
1327.25	159
1327.69	121
1328.13	135
1328.57	141
1329.02	113
1329.45	133
1329.9	117
1330.34	173
1330.78	95
1331.22	193
1331.66	101
1332.1	163
1332.54	147
1332.98	153
1333.42	141
1333.86	103
1334.3	135
1334.74	151
1335.18	159
1335.62	109
1336.07	179
1336.5	71
1336.95	175
1337.39	137
1337.83	145
1338.27	131
1338.71	125
1339.15	151
1339.59	129
1340.03	155
1340.47	83
1340.91	183
1341.35	63
1341.79	171
1342.23	105
1342.67	151
1343.11	149
1343.55	99
1343.99	147
1344.43	125
1344.86	151
1345.31	91
1345.74	187
1346.18	83
1346.62	153
1347.06	113
1347.5	135
1347.94	159
1348.38	113
1348.82	141
1349.26	139
1349.7	147
1350.14	103
1350.58	175
1351.02	93
1351.46	165
1351.9	115
1352.33	129
1352.77	151
1353.21	127
1353.65	117
1354.09	153
1354.53	123
1354.97	119
1355.41	141
1355.85	101
1356.29	163
1356.72	97
1357.16	111
1357.6	165
1358.04	107
1358.48	129
1358.92	127
1359.36	113
1359.79	141
1360.23	123
1360.67	141
1361.11	135
1361.55	107
1361.99	113
1362.43	165
1362.87	81
1363.3	121
1363.74	123
1364.18	125
1364.62	147
1365.06	91
1365.49	133
1365.93	133
1366.37	133
1366.81	115
1367.25	161
1367.68	101
1368.12	121
1368.56	141
1369	109
1369.44	153
1369.87	79
1370.31	135
1370.75	107
1371.19	143
1371.62	109
1372.06	153
1372.5	105
1372.94	115
1373.37	147
1373.81	127
1374.25	173
1374.69	59
1375.12	155
1375.56	119
1376	147
1376.44	97
1376.87	127
1377.31	83
1377.75	161
1378.19	143
1378.62	111
1379.06	159
1379.5	53
1379.93	145
1380.37	113
1380.81	153
1381.25	89
1381.68	123
1382.12	83
1382.56	147
1382.99	113
1383.43	123
1383.87	159
1384.3	69
1384.74	155
1385.18	117
1385.61	153
1386.05	93
1386.49	131
1386.92	97
1387.36	169
1387.8	105
1388.23	135
1388.67	141
1389.1	95
1389.54	147
1389.98	125
1390.41	127
1390.85	113
1391.29	135
1391.72	105
1392.16	143
1392.59	111
1393.03	113
1393.47	129
1393.9	107
1394.34	141
1394.77	129
1395.21	123
1395.65	115
1396.08	113
1396.52	107
1396.95	145
1397.39	111
1397.82	117
1398.26	139
1398.7	99
1399.13	131
1399.57	145
1400	101
1400.44	157
1400.87	113
1401.31	143
1401.74	117
1402.18	131
1402.62	137
1403.05	131
1403.49	123
1403.92	129
1404.36	155
1404.79	121
1405.23	165
1405.66	69
1406.1	153
1406.53	131
1406.97	115
1407.4	115
1407.84	141
1408.27	183
1408.71	107
1409.14	135
1409.58	83
1410.01	165
1410.45	55
1410.88	125
1411.31	115
1411.75	123
1412.18	105
1412.62	129
1413.05	99
1413.49	111
1413.92	132.5
1414.36	120.1
1414.79	191
1415.23	67
1415.66	165
1416.1	105
1416.53	125
1416.96	105
1417.4	121
1417.83	123
1418.27	141
1418.7	143
1419.13	91
1419.57	163
1420	41
1420.44	157
1420.87	95
1421.3	131
1421.74	105
1422.17	115
1422.61	117
1423.04	123
1423.47	133
1423.91	97
1424.34	129
1424.77	63
1425.21	159
1425.64	109
1426.07	141
1426.51	105
1426.94	93
1427.38	127
1427.81	153
1428.24	103
1428.68	129
1429.11	137
1429.54	95
1429.98	155
1430.41	117
1430.84	121
1431.28	129
1431.71	111
1432.14	127
1432.57	151
1433.01	101
1433.44	123
1433.87	133
1434.31	97
1434.74	153
1435.17	127
1435.61	107
1436.04	123
1436.47	77
1436.9	127
1437.34	133
1437.77	111
1438.2	135
1438.63	117
1439.07	129
1439.5	129
1439.93	131
1440.36	79
1440.8	155
1441.23	89
1441.66	147
1442.09	153
1442.53	103
1442.96	147
1443.39	97
1443.82	143
1444.26	103
1444.69	157
1445.12	107
1445.55	169
1445.98	69
1446.42	139
1446.85	129
1447.28	89
1447.71	151
1448.14	83
1448.57	129
1449.01	109
1449.44	135
1449.87	93
1450.3	145
1450.73	67
1451.17	151
1451.6	115
1452.03	101
1452.46	127
1452.89	93
1453.32	137
1453.76	83
1454.19	139
1454.62	97
1455.05	171
1455.48	71
1455.91	151
1456.34	113
1456.77	109
1457.21	143
1457.64	79
1458.07	127
1458.5	95.0784
1458.93	140.78
1459.36	101.078
1459.79	131.765
1460.22	61.8599
1460.65	134.053
1461.08	122.302
1461.52	124.233
1461.95	127.5
1462.38	96.9833
1462.81	115.511
1463.24	121.861
1463.67	130.611
1464.1	113.707
1464.53	134.903
1464.96	69.2937
1465.39	155.35
1465.82	130.88
1466.25	127.174
1466.68	121.939
1467.11	113.804
1467.54	142.194
1467.98	138.9
1468.41	118.091
1468.84	125.543
1469.27	108.517
1469.7	113.701
1470.13	143.814
1470.56	115.315
1470.99	125.709
1471.42	116.216
1471.85	90.1107
1472.28	129.331
1472.71	121.727
1473.14	113.265
1473.57	145.582
1474	74.5349
1474.43	121.978
1474.86	112.656
1475.29	119.294
1475.72	111.021
1476.15	92.5161
1476.58	121.429
1477.01	135.116
1477.44	148.451
1477.87	87.3547
1478.3	153.144
1478.72	83.32
1479.15	146.385
1479.58	117.991
1480.01	123.767
1480.44	125.323
1480.87	107.564
1481.3	123.029
1481.73	120.282
1482.16	142.635
1482.59	92.2319
1483.02	160.397
1483.45	87.8967
1483.88	150.238
1484.31	111.561
1484.74	114.528
1485.17	123.502
1485.59	104.185
1486.02	117.508
1486.45	121.175
1486.88	129.591
1487.31	90.3549
1487.74	134.545
1488.17	90.3499
1488.6	143.182
1489.02	106.181
1489.45	117.162
1489.88	120.033
1490.31	109.068
1490.74	108.701
1491.17	130.595
1491.6	127.022
1492.03	114.922
1492.45	139.889
1492.88	109.202
1493.31	135.923
1493.74	106.568
1494.17	108.977
1494.6	131.478
1495.02	114.296
1495.45	115.338
1495.88	122.322
1496.31	120.454
1496.74	109.966
1497.17	109.623
1497.59	108.333
1498.02	122.454
1498.45	114.297
1498.88	108.446
1499.31	123.528
1499.73	116.96
1500.16	102.324
1500.59	123.383
1501.02	128.945
1501.45	117.845
1501.87	113.21
1502.13	105
1502.56	109
1502.99	133
1503.43	113
1503.86	115
1504.29	141
1504.72	107
1505.16	119
1505.59	137
1506.02	109
1506.46	151
1506.89	97
1507.32	125
1507.75	127
1508.19	129
1508.62	119
1509.05	143
1509.49	103
1509.92	113
1510.35	125
1510.78	107
1511.21	163
1511.65	59
1512.08	139
1512.51	113
1512.94	123
1513.38	109
1513.81	137
1514.24	99
1514.67	113
1515.11	141
1515.54	115
1515.97	177
1516.4	55
1516.83	159
1517.27	109
1517.7	141
1518.13	101
1518.56	145
1518.99	97
1519.42	131
1519.86	137
1520.29	89
1520.72	157
1521.15	49
1521.58	153
1522.01	105
1522.45	129
1522.88	87
1523.31	137
1523.74	113
1524.17	123
1524.6	117
1525.04	121
1525.47	147
1525.9	73
1526.33	153
1526.76	111
1527.19	149
1527.62	87
1528.05	133
1528.49	101
1528.92	157
1529.35	109
1529.78	117
1530.21	159
1530.64	79
1531.07	167
1531.5	153
1531.93	141
1532.37	115
1532.8	125
1533.23	115
1533.66	141
1534.09	119
1534.52	125
1534.95	149
1535.38	115
1535.81	129
1536.24	151
1536.67	135
1537.1	129
1537.53	113
1537.96	99
1538.39	145
1538.82	113
1539.26	125
1539.68	137
1540.12	115
1540.55	119
1540.98	133
1541.41	107
1541.84	153
1542.27	111
1542.7	145
1543.13	129
1543.56	105
1543.99	151
1544.42	135
1544.85	113
1545.28	129
1545.71	119
1546.14	109
1546.57	181
1547	65
1547.43	165
1547.86	115
1548.29	135
1548.72	121
1549.14	149
1549.57	113
1550.01	113
1550.43	155
1550.86	101
1551.29	177
1551.72	65
1552.15	159
1552.58	125
1553.01	145
1553.44	127
1553.87	155
1554.3	133
1554.73	113
1555.16	153
1555.59	111
1556.01	185
1556.44	83
1556.87	175
1557.3	125
1557.73	161
1558.16	123
1558.59	139
1559.02	115
1559.45	153
1559.88	189
1560.3	117
1560.73	179
1561.16	69
1561.59	185
1562.02	145
1562.45	185
1562.88	141
1563.31	151
1563.73	135
1564.16	137
1564.59	147
1565.02	141
1565.45	183
1565.88	95
1566.3	205
1566.73	145
1567.16	191
1567.59	141
1568.02	137
1568.45	157
1568.88	171
1569.3	171
1569.73	153
1570.16	211
1570.59	133
1571.01	203
1571.44	157
1571.87	171
1572.3	153
1572.73	161
1573.15	183
1573.58	201
1574.01	167
1574.44	167
1574.87	183
1575.29	149
1575.72	217
1576.15	199
1576.58	175
1577	205
1577.43	173
1577.86	207
1578.29	203
1578.71	195
1579.14	269
1579.57	243
1580	229
1580.42	261
1580.85	271
1581.28	239
1581.71	275
1582.13	291
1582.56	335
1582.99	349
1583.41	293
1583.84	359
1584.27	345
1584.7	387
1585.12	403
1585.55	415
1585.98	409
1586.4	469
1586.83	403
1587.26	469
1587.68	445
1588.11	405
1588.54	501
1588.96	405
1589.39	483
1589.82	409
1590.24	413
1590.67	359
1591.1	457
1591.52	327
1591.95	381
1592.38	367
1592.8	317
1593.23	349
1593.65	269
1594.08	295
1594.51	297
1594.93	295
1595.36	235
1595.79	279
1596.21	187
1596.64	257
1597.06	189
1597.49	239
1597.92	205
1598.34	185
1598.77	205
1599.19	155
1599.62	211
1600.05	133
1600.47	225
1600.9	113
1601.32	201
1601.75	173
1602.18	165
1602.6	177
1603.03	135
1603.45	143
1603.88	141
1604.3	167
1604.73	137
1605.15	167
1605.58	83
1606	187
1606.43	129
1606.86	141
1607.28	123
1607.71	135
1608.13	151
1608.56	163
1608.98	141
1609.41	133
1609.83	161
1610.26	89
1610.68	171
1611.11	137
1611.53	151
1611.96	121
1612.38	115
1612.81	147
1613.23	151
1613.66	145
1614.08	127
1614.51	143
1614.93	101
1615.36	167
1615.78	125
1616.21	137
1616.63	149
1617.06	113
1617.48	153
1617.9	151
1618.33	121
1618.75	145
1619.18	137
1619.6	143
1620.03	143
1620.45	141
1620.88	123
1621.3	145
1621.72	105
1622.15	145
1622.57	145
1623	107
1623.42	145
1623.85	115
1624.27	135
1624.69	115
1625.12	163
1625.54	103
1625.97	185
1626.39	103
1626.81	161
1627.24	129
1627.66	107
1628.08	153
1628.51	129
1628.93	125
1629.36	111
1629.78	137
1630.2	123
1630.63	153
1631.05	61
1631.47	165
1631.9	121
1632.32	121
1632.74	141
1633.17	101
1633.59	151
1634.01	93
1634.44	139
1634.86	103
1635.28	169
1635.71	69
1636.13	153
1636.55	111
1636.98	125
1637.4	149
1637.82	87
1638.25	135
1638.67	87
1639.09	145
1639.51	113
1639.94	167
1640.36	69
1640.78	153
1641.21	111
1641.63	115
1642.05	141
1642.47	91
1642.9	117
1643.32	141
1643.74	129
1644.17	103
1644.59	145
1645.01	69
1645.43	157
1645.86	109
1646.28	141
1646.7	123
1647.12	105
1647.55	129
1647.97	113
1648.39	137
1648.81	119
1649.23	123
1649.66	59
1650.08	153
1650.5	121
1650.92	125
1651.35	131
1651.77	99
1652.19	147
1652.61	123
1653.03	121
1653.45	125
1653.88	117
1654.3	109
1654.72	141
1655.14	131
1655.56	115
1655.99	115
1656.41	91
1656.83	137
1657.25	143
1657.67	99
1658.09	133
1658.52	89
1658.94	117
1659.36	123
1659.78	131
1660.2	129
1660.62	119
1661.04	101
1661.47	129
1661.89	129
1662.31	95
1662.73	145
1663.15	101
1663.57	127
1663.99	129
1664.41	145
1664.83	95
1665.26	149
1665.68	97
1666.1	145
1666.52	121
1666.94	97
1667.36	151
1667.78	91
1668.2	133
1668.62	95
1669.04	141
1669.46	109
1669.89	149
1670.31	93
1670.73	147
1671.15	137
1671.57	109
1671.99	175
1672.41	77
1672.83	149
1673.25	103
1673.67	145
1674.09	85
1674.51	143
1674.93	91
1675.35	139
1675.77	129
1676.19	87
1676.61	173
1677.03	73
1677.45	137
1677.87	83
1678.29	143
1678.71	103
1679.13	147
1679.55	81
1679.97	155
1680.39	117
1680.81	121
1681.23	151
1681.65	71
1682.07	133
1682.49	65
1682.91	139
1683.33	101
1683.75	139
1684.17	63
1684.59	157
1685.01	103
1685.43	115
1685.85	167
1686.27	79
1686.69	157
1687.11	89
1687.53	129
1687.95	101
1688.37	127
1688.78	71
1689.2	145
1689.62	109
1690.04	109
1690.46	149
1690.88	71
1691.3	143
1691.72	117
1692.14	111
1692.56	113
1692.98	111
1693.39	77
1693.81	139
1694.23	111
1694.65	113
1695.07	131
1695.49	107
1695.91	123
1696.33	123
1696.75	117
1697.16	147
1697.58	103
1698	103
1698.42	133
1698.84	115
1699.26	125
1699.68	105
1700.09	73
1700.51	113
1700.93	127
1701.35	109
1701.77	133
1702.19	73
1702.6	121
1703.02	119
1703.44	131
1703.86	105
1704.28	135
1704.69	93
1705.11	143
1705.53	131
1705.95	67
1706.37	167
1706.78	59
1707.2	135
1707.62	113
1708.04	147
1708.46	123
1708.87	133
1709.29	109
1709.71	115
1710.13	135
1710.54	63
1710.96	169
1711.38	73
1711.8	147
1712.22	97
1712.63	147
1713.05	111
1713.47	115
1713.89	105
1714.3	153
1714.72	151
1715.14	81
1715.56	147
1715.97	75
1716.39	141
1716.81	77
1717.22	145
1717.64	101
1718.06	119
1718.48	109
1718.89	147
1719.31	125
1719.73	83
1720.14	155
1720.56	77
1720.98	157
1721.39	79
1721.81	121
1722.23	121
1722.64	123
1723.06	101
1723.48	143
1723.89	131
1724.31	115
1724.73	149
1725.14	83
1725.56	125
1725.98	95
1726.39	131
1726.81	131
1727.23	113
1727.64	109
1728.06	133
1728.48	113
1728.89	107
1729.31	119
1729.72	107
1730.14	145
1730.56	111
1730.97	129
1731.39	137
1731.8	109
1732.22	99
1732.64	141
1733.05	119
1733.47	121
1733.89	117
1734.3	97
1734.72	151
1735.13	117
1735.55	101
1735.96	151
1736.38	83
1736.8	103
1737.21	129
1737.63	121
1738.04	125
1738.46	95
1738.87	99
1739.29	129
1739.71	149
1740.12	85
1740.54	161
1740.95	71
1741.37	113
1741.78	119
1742.2	119
1742.61	111
1743.03	67
1743.44	111
1743.86	109
1744.27	117
1744.69	83
1745.1	161
1745.52	81
1745.93	151
1746.35	119
1746.77	129
1747.18	137
1747.59	81
1748.01	125
1748.42	131
1748.84	135
1749.25	59
1749.67	167
1750.08	61
1750.5	135
1750.91	95
1751.33	131
1751.74	133
1752.16	77
1752.57	117
1752.99	115
1753.4	153
1753.81	73
1754.23	169
1754.64	61
1755.06	143
1755.47	89
1755.89	113
1756.3	129
1756.72	85
1757.13	139
1757.54	129
1757.96	133
1758.37	67
1758.78	159
1759.2	71
1759.61	153
1760.03	89
1760.44	129
1760.86	143
1761.27	79
1761.68	135
1762.1	125
1762.51	127
1762.92	89
1763.34	129
1763.75	87
1764.17	147
1764.58	81
1764.99	121
1765.41	143
1765.82	81
1766.23	127
1766.65	117
1767.06	131
1767.47	89
1767.89	141
1768.3	75
1768.71	159
1769.13	95
1769.54	117
1769.95	117
1770.37	83
1770.78	115
1771.19	127
1771.61	123
1772.02	133
1772.43	117
1772.85	103
1773.26	123
1773.67	103
1774.09	109
1774.5	143
1774.91	89
1775.32	119
1775.74	133
1776.15	125
1776.56	145
1776.97	93
1777.39	115
1777.8	123
1778.21	111
1778.62	103
1779.04	141
1779.45	85
1779.86	103
1780.28	131
1780.69	109
1781.1	161
1781.51	63
1781.92	121
1782.34	109
1782.75	121
1783.16	111
1783.57	137
1783.99	79
1784.4	127
1784.81	127
1785.22	103
1785.63	147
1786.05	71
1786.46	123
1786.87	115
1787.28	149
1787.69	85
1788.11	175
1788.52	81
1788.93	125
1789.34	127
1789.75	97
1790.17	147
1790.58	53
1790.99	133
1791.4	91
1791.81	147
1792.22	73
1792.63	129
1793.05	85
1793.46	141
1793.87	125
1794.28	117
1794.69	157
1795.1	37
1795.52	151
1795.93	111
1796.34	145
1796.75	87
1797.16	125
1797.57	85
1797.98	133
1798.39	99
1798.81	113
1799.22	137
1799.63	77
1800.04	133
1800.45	127
1800.86	147
1801.27	85
1801.68	131
1802.09	77
1802.5	139
1802.91	83
1803.32	125
1803.73	129
1804.15	83
1804.56	147
1804.97	101
1805.38	139
1805.79	107
1806.2	111
1806.61	81
1807.02	133
1807.43	89
1807.84	105
1808.25	135
1808.66	85
1809.07	127
1809.48	121
1809.89	109
1810.3	117
1810.71	109
1811.12	105
1811.53	147
1811.94	103
1812.35	99
1812.76	131
1813.17	99
1813.58	113
1813.99	141
1814.4	91
1814.81	143
1815.22	97
1815.63	125
1816.04	131
1816.45	111
1816.86	105
1817.27	117
1817.68	87
1818.09	91
1818.5	125
1818.91	101
1819.32	137
1819.73	81
1820.14	107
1820.55	113
1820.96	121
1821.37	113
1821.78	141
1822.19	89
1822.6	101
1823.01	135
1823.42	91
1823.82	165
1824.23	59
1824.64	159
1825.05	105
1825.46	135
1825.87	111
1826.28	133
1826.69	95
1827.1	105
1827.51	127
1827.91	91
1828.32	167
1828.73	53
1829.14	147
1829.55	101
1829.96	131
1830.37	111
1830.78	133
1831.18	87
1831.59	119
1832	119
1832.41	85
1832.82	153
1833.23	41
1833.64	153
1834.05	97
1834.45	139
1834.86	105
1835.27	133
1835.68	93
1836.09	127
1836.49	139
1836.9	75
1837.31	153
1837.72	43
1838.13	167
1838.53	91
1838.94	151
1839.35	95
1839.76	123
1840.17	83
1840.58	125
1840.98	111
1841.39	95
1841.8	151
1842.21	51
1842.61	147
1843.02	93
1843.43	113
1843.84	107
1844.25	125
1844.65	119
1845.06	113
1845.47	109
1845.88	117
1846.28	128.736
1846.69	83.6297
1847.1	146.228
1847.51	109.308
1847.91	130.777
1848.32	127.236
1848.73	103.946
1849.14	103.407
1849.54	136.728
1849.95	113.003
1850.36	117.454
1850.77	111.881
1851.17	81.2137
1851.58	134.32
1851.99	103.168
1852.39	105.176
1852.8	109.68
1853.21	91.3305
1853.62	112.596
1854.02	122.43
1854.43	105.811
1854.84	118.473
1855.24	109.074
1855.65	107.152
1856.06	122.302
1856.46	116.141
1856.87	96.5666
1857.28	114.011
1857.68	102.37
1858.09	122.161
1858.5	117.707
1858.9	103.963
1859.31	122.501
1859.72	110.77
1860.12	118.527
1860.53	91.1833
1860.94	137.379
1861.34	107.517
1861.75	138.299
1862.15	93.6066
1862.56	127.108
1862.97	122.262
1863.37	112.502
1863.78	136.789
1864.19	93.806
1864.59	125.696
1865	109.763
1865.4	127.025
1865.81	113.347
1866.22	133.767
1866.62	99.5933
1867.03	127.402
1867.43	113.609
1867.84	121.987
1868.25	112.634
1868.65	99.143
1869.06	116.53
1869.46	109.226
1869.87	124.138
1870.28	106.639
1870.68	135.133
1871.09	94.9647
1871.49	140.766
1871.9	110.138
1872.3	122.451
1872.71	105.193
1873.12	104.596
1873.52	128.294
1873.93	117.95
1874.33	127.648
1874.74	107.069
1875.14	119.325
1875.55	94.693
1875.95	126.441
1876.36	109.459
1876.76	127.594
1877.17	113.964
1877.57	98.6255
1877.98	114.847
1878.38	121.417
1878.79	115.067
1879.19	109.479
1879.6	104.22
1880	95.9564
1880.41	136.697
1880.81	112.63
1881.22	108.205
1881.63	128.319
1882.03	107.677
1882.43	142.06
1882.84	125.442
1883.24	129.704
1883.65	110.524
1884.05	112.826
1884.46	110.561
1884.86	132.754
1885.27	119.341
1885.67	102.714
1886.08	141.394
1886.48	88.7017
1886.89	138.029
1887.29	92.0744
1887.69	119.496
1888.1	104.071
1888.5	132.331
1888.85	97
1889.26	141
1889.67	121
1890.08	87
1890.49	167
1890.9	71
1891.3	133
1891.71	95
1892.12	123
1892.53	93
1892.94	137
1893.35	71
1893.76	135
1894.17	109
1894.58	93
1894.99	151
1895.4	53
1895.81	165
1896.22	65
1896.62	139
1897.03	89
1897.44	123
1897.85	69
1898.26	147
1898.67	113
1899.08	109
1899.49	153
1899.9	83
1900.3	135
1900.71	87
1901.12	125
1901.53	111
1901.94	127
1902.35	61
1902.75	137
1903.16	121
1903.57	133
1903.98	131
1904.39	99
1904.8	121
1905.21	123
1905.61	111
1906.02	127
1906.43	99
1906.84	77
1907.25	141
1907.66	131
1908.06	125
1908.47	115
1908.88	85
1909.29	137
1909.7	129
1910.1	105
1910.51	127
1910.92	85
1911.33	111
1911.73	139
1912.14	117
1912.55	97
1912.96	111
1913.37	93
1913.77	115
1914.18	119
1914.59	97
1915	155
1915.4	83
1915.81	133
1916.22	125
1916.63	139
1917.03	115
1917.44	121
1917.85	109
1918.26	133
1918.66	131
1919.07	87
1919.48	179
1919.89	75
1920.29	139
1920.7	101
1921.11	135
1921.51	125
1921.92	121
1922.33	87
1922.73	141
1923.14	123
1923.55	81
1923.96	165
1924.36	77
1924.77	141
1925.18	81
1925.58	127
1925.99	103
1926.4	151
1926.8	93
1927.21	131
1927.62	121
1928.02	81
1928.43	151
1928.84	63
1929.24	155
1929.65	67
1930.06	127
1930.46	119
1930.87	139
1931.28	97
1931.68	131
1932.09	111
1932.49	85
1932.9	155
1933.31	65
1933.71	149
1934.12	77
1934.53	143
1934.93	117
1935.34	119
1935.74	73
1936.15	139
1936.56	113
1936.96	87
1937.37	141
1937.78	73
1938.18	145
1938.59	79
1938.99	131
1939.4	91
1939.8	123
1940.21	73
1940.62	153
1941.02	113
1941.43	111
1941.83	155
1942.24	97
1942.64	133
1943.05	99
1943.45	127
1943.86	135
1944.27	123
1944.67	91
1945.08	145
1945.48	129
1945.89	113
1946.29	133
1946.7	87
1947.1	123
1947.51	111
1947.91	107
1948.32	133
1948.72	97
1949.13	87
1949.53	141
1949.94	115
1950.34	127
1950.75	125
1951.15	99
1951.56	153
1951.96	121
1952.37	99
1952.77	161
1953.18	93
1953.58	87
1953.99	133
1954.39	97
1954.8	99
1955.2	103
1955.61	83
1956.01	119
1956.42	111
1956.82	89
1957.23	149
1957.63	69
1958.03	119
1958.44	121
1958.84	125
1959.25	107
1959.65	101
1960.06	109
1960.46	117
1960.86	125
1961.27	57
1961.67	165
1962.08	45
1962.48	135
1962.89	105
1963.29	133
1963.69	107
1964.1	115
1964.5	105
1964.91	129
1965.31	145
1965.71	67
1966.12	169
1966.52	67
1966.93	151
1967.33	99
1967.73	127
1968.14	103
1968.54	129
1968.94	93
1969.35	141
1969.75	143
1970.15	63
1970.56	179
1970.96	61
1971.37	157
1971.77	77
1972.17	135
1972.58	107
1972.98	133
1973.38	99
1973.79	131
1974.19	133
1974.59	89
1974.99	169
1975.4	51
1975.8	157
1976.21	97
1976.61	133
1977.01	103
1977.41	127
1977.82	105
1978.22	155
1978.62	125
1979.03	97
1979.43	147
1979.83	87
1980.24	143
1980.64	93
1981.04	143
1981.44	129
1981.85	137
1982.25	101
1982.65	143
1983.05	123
1983.46	101
1983.86	147
1984.26	99
1984.66	135
1985.07	105
1985.47	143
1985.87	139
1986.27	115
1986.68	77
1987.08	139
1987.48	145
1987.88	121
1988.29	121
1988.69	95
1989.09	117
1989.49	109
1989.89	107
1990.3	153
1990.7	75
1991.1	115
1991.5	115
1991.9	121
1992.31	105
1992.71	99
1993.11	109
1993.51	115
1993.91	129
1994.32	91
1994.72	159
1995.12	83
1995.52	119
1995.92	121
1996.32	125
1996.73	105
1997.13	97
1997.53	119
1997.93	147
1998.33	131
1998.73	87
1999.14	165
1999.54	87
1999.94	139
2000.34	117
2000.74	133
2001.14	117
2001.54	103
2001.94	83
2002.35	125
2002.75	137
2003.15	89
2003.55	151
2003.95	71
2004.35	159
2004.75	87
2005.15	133
2005.55	87
2005.96	115
2006.36	113
2006.76	119
2007.16	147
2007.56	69
2007.96	159
2008.36	53
2008.76	173
2009.16	87
2009.56	131
2009.96	111
2010.36	131
2010.76	93
2011.16	137
2011.57	139
2011.97	93
2012.37	183
2012.77	61
2013.17	143
2013.57	79
2013.97	147
2014.37	103
2014.77	127
2015.17	107
2015.57	127
2015.97	107
2016.37	71
2016.77	157
2017.17	69
2017.57	149
2017.97	83
2018.37	135
2018.77	111
2019.17	115
2019.57	95
2019.97	151
2020.37	131
2020.77	121
2021.17	163
2021.57	71
2021.97	155
2022.37	117
2022.77	141
2023.17	123
2023.57	109
2023.97	99
2024.37	135
2024.77	115
2025.17	113
2025.57	137
2025.97	89
2026.37	129
2026.77	103
2027.16	141
2027.56	131
2027.96	101
2028.36	73
2028.76	135
2029.16	111
2029.56	105
2029.96	119
2030.36	93
2030.76	135
2031.16	117
2031.56	103
2031.96	117
2032.35	99
2032.75	101
2033.15	137
2033.55	127
2033.95	135
2034.35	111
2034.75	109
2035.15	137
2035.54	147
2035.94	111
2036.34	155
2036.74	93
2037.14	113
2037.54	129
2037.94	121
2038.34	137
2038.74	103
2039.13	117
2039.53	113
2039.93	147
2040.33	87
2040.73	163
2041.12	85
2041.52	113
2041.92	137
2042.32	125
2042.72	129
2043.12	93
2043.51	131
2043.91	117
2044.31	135
2044.71	79
2045.11	147
2045.51	67
2045.9	157
2046.3	121
2046.7	131
2047.1	125
2047.49	97
2047.89	127
2048.29	129
2048.69	141
2049.09	63
2049.48	167
2049.88	69
2050.28	155
2050.68	87
2051.07	125
2051.47	111
2051.87	101
2052.27	145
2052.67	123
2053.06	139
2053.46	61
2053.86	159
2054.26	75
2054.65	149
2055.05	103
2055.45	137
2055.85	103
2056.24	111
2056.64	99
2057.04	139
2057.43	137
2057.83	87
2058.23	145
2058.62	61
2059.02	147
2059.42	99
2059.82	143
2060.21	113
2060.61	139
2061.01	103
2061.4	143
2061.8	135
2062.2	67
2062.59	169
2062.99	71
2063.39	139
2063.79	73
2064.18	143
2064.58	141
2064.97	99
2065.37	97
2065.77	123
2066.16	115
2066.56	101
2066.96	161
2067.35	77
2067.75	135
2068.15	99
2068.54	119
2068.94	117
2069.34	109
2069.73	67
2070.13	127
2070.52	101
2070.92	133
2071.32	121
2071.71	105
2072.11	125
2072.51	113
2072.9	119
2073.3	133
2073.69	105
2074.09	109
2074.49	137
2074.88	97
2075.28	129
2075.67	113
2076.07	109
2076.47	129
2076.86	119
2077.26	99
2077.65	143
2078.05	81
2078.44	111
2078.84	123
2079.23	121
2079.63	133
2080.03	111
2080.42	135
2080.82	127
2081.21	135
2081.61	87
2082	165
2082.4	87
2082.79	135
2083.19	115
2083.58	125
2083.98	95
2084.37	101
2084.77	103
2085.16	117
2085.56	151
2085.95	83
2086.35	179
2086.74	83
2087.14	145
2087.53	121
2087.93	177
2088.32	125
2088.72	103
2089.11	103
2089.51	133
2089.9	131
2090.3	69
2090.69	167
2091.09	75
2091.48	153
2091.88	89
2092.27	127
2092.67	107
2093.06	95
2093.46	99
2093.85	115
2094.25	141
2094.64	73
2095.03	163
2095.43	57
2095.82	161
2096.22	95
2096.61	137
2097.01	121
2097.4	81
2097.79	101
2098.19	121
2098.58	127
2098.98	87
2099.37	169
2099.76	75
2100.16	147
2100.55	65
2100.95	135
2101.34	111
2101.73	123
2102.13	89
2102.52	123
2102.92	109
2103.31	85
2103.7	165
2104.1	59
2104.49	153
2104.88	85
2105.28	123
2105.67	131
2106.07	117
2106.46	105
2106.85	107
2107.25	129
2107.64	87
2108.03	145
2108.43	77
2108.82	137
2109.21	103
2109.61	115
2110	121
2110.39	99
2110.79	97
2111.18	141
2111.57	127
2111.97	121
2112.36	135
2112.75	101
2113.15	127
2113.54	101
2113.93	113
2114.32	117
2114.72	97
2115.11	91
2115.5	135
2115.9	107
2116.29	121
2116.68	103
2117.08	89
2117.47	125
2117.86	119
2118.25	127
2118.65	159
2119.04	73
2119.43	97
2119.82	127
2120.22	139
2120.61	129
2121	97
2121.39	109
2121.79	119
2122.18	111
2122.57	93
2122.96	161
2123.36	45
2123.75	125
2124.14	127
2124.53	115
2124.93	135
2125.32	89
2125.71	145
2126.1	113
2126.49	157
2126.89	71
2127.28	159
2127.67	63
2128.06	139
2128.45	125
2128.85	125
2129.24	121
2129.63	85
2130.02	101
2130.41	113
2130.81	117
2131.2	71
2131.59	161
2131.98	69
2132.37	155
2132.76	105
2133.16	121
2133.55	123
2133.94	130.52
2134.33	156
2134.72	147.6
2135.11	143
2135.5	79
2135.9	179
2136.29	73
2136.68	167
2137.07	79
2137.46	129
2137.85	127
2138.24	101
2138.63	123
2139.03	111
2139.42	123
2139.81	73
2140.2	167
2140.59	79
2140.98	155
2141.37	91
2141.76	129
2142.15	127
2142.55	111
2142.94	89
2143.33	133
2143.72	109
2144.11	93
2144.5	143
2144.89	63
2145.28	161
2145.67	81
2146.06	137
2146.45	119
2146.84	111
2147.23	75
2147.62	143
2148.02	125
2148.4	117
2148.8	135
2149.19	77
2149.58	145
2149.97	87
2150.36	137
2150.75	143
2151.14	95
2151.53	105
2151.92	127
2152.31	101
2152.7	129
2153.09	103
2153.48	97
2153.87	117
2154.26	133
2154.65	97
2155.04	151
2155.43	71
2155.82	87
2156.21	127
2156.6	123
2156.99	127
2157.38	85
2157.77	115
2158.16	121
2158.55	129
2158.94	85
2159.33	157
2159.72	63
2160.11	123
2160.5	125
2160.89	129
2161.28	141
2161.66	99
2162.05	105
2162.44	129
2162.83	131
2163.22	75
2163.61	179
2164	71
2164.39	139
2164.78	89
2165.17	131
2165.56	107
2165.95	83
2166.34	107
2166.73	123
2167.11	127
2167.5	53
2167.89	171
2168.28	51
2168.67	151
2169.06	95
2169.45	137
2169.84	103
2170.23	89
2170.62	115
2171	123
2171.39	127
2171.78	71
2172.17	161
2172.56	65
2172.95	147
2173.34	79
2173.73	125
2174.11	119
2174.5	127
2174.89	109
2175.28	141
2175.67	117
2176.06	75
2176.45	125
2176.83	69
2177.22	159
2177.61	69
2178	135
2178.39	109
2178.78	113
2179.16	109
2179.55	131
2179.94	135
2180.33	89
2180.72	143
2181.1	69
2181.49	131
2181.88	85
2182.27	117
2182.66	117
2183.04	89
2183.43	91
2183.82	117
2184.21	113
2184.6	105
2184.98	123
2185.37	87
2185.76	139
2186.15	103
2186.53	111
2186.92	129
2187.31	111
2187.7	97
2188.08	141
2188.47	97
2188.86	121
2189.25	105
2189.63	101
2190.02	117
2190.41	105
2190.8	95
2191.18	125
2191.57	93
2191.96	99
2192.34	127
2192.73	107
2193.12	103
2193.51	103
2193.89	101
2194.28	119
2194.67	137
2195.06	101
2195.44	155
2195.83	65
2196.22	95
2196.6	131
2196.99	99
2197.38	125
2197.76	81
2198.15	123
2198.54	113
2198.92	139
2199.31	103
2199.7	161
2200.08	71
2200.47	117
2200.86	131
2201.24	95
2201.63	125
2202.02	55
2202.4	131
2202.79	121
2203.18	129
2203.56	65
2203.95	159
2204.34	69
2204.72	129
2205.11	95
2205.49	109
2205.88	113
2206.27	65
2206.65	125
2207.04	97
2207.43	151
2207.81	53
2208.2	171
2208.58	53
2208.97	157
2209.36	91
2209.74	109
2210.13	117
2210.51	91
2210.9	129
2211.29	103
2211.67	133
2212.06	53
2212.44	171
2212.83	61
2213.21	171
2213.6	93
2213.98	111
2214.37	131
2214.76	101
2215.14	111
2215.53	129
2215.91	129.018
2216.3	85.2541
2216.69	145.551
2217.07	71.7516
2217.46	130.467
2217.84	85.8258
2218.23	129.82
2218.61	108.309
2219	104.016
2219.38	105.94
2219.77	123.275
2220.15	123.204
2220.54	98.75
2220.92	136.905
2221.31	91.549
2221.69	142.291
2222.08	151.505
2222.46	128.448
2222.85	153.087
2223.23	149.691
2223.62	134.009
2224	125.31
2224.39	113.506
2224.77	104.844
2225.16	118.65
2225.54	93.8373
2225.93	116.318
2226.31	118.229
2226.7	121.245
2227.08	133.601
2227.47	98.2223
2227.85	128.723
2228.23	177.976
2228.62	112.569
2229	125.326
2229.39	109.296
2229.77	95.3544
2230.16	95.9672
2230.54	118.023
2230.92	101.25
2231.31	132.349
2231.69	111.897
2232.08	107.69
2232.46	111.119
2232.85	112.615
2233.23	122.092
2233.62	107.506
2234	102.714
2234.38	110.395
2234.77	125.101
2235.15	112.931
2235.54	132.012
2235.92	107.968
2236.3	116.636
2236.69	114.498
2237.07	122.97
2237.46	113.985
2237.84	100.948
2238.22	105.312
2238.61	103.71
2238.99	122.998
2239.37	110.694
2239.76	137.933
2240.14	96.2076
2240.53	131.041
2240.91	102.577
2241.29	120.839
2241.68	118.51
2242.06	107.393
2242.44	121.799
2242.83	97.5342
2243.21	113.559
2243.59	110
2243.98	134.38
2244.36	88.8353
2244.74	123.321
2245.13	75.6665
2245.51	117.604
2245.89	110.805
2246.28	112.692
2246.66	118.151
2247.04	108.388
2247.43	111.94
2247.81	117.004
2248.19	127.649
2248.58	80.933
2248.96	159.675
2249.34	67.893
2249.73	131.148
2250.11	98.7366
2250.49	116.317
2250.88	123.355
2251.26	84.0359
2251.64	131.154
2252.02	119.813
2252.41	133.393
2252.79	76.192
2252.8	75
2253.18	161
2253.57	63
2253.96	159
2254.35	109
2254.74	109
2255.12	103
2255.51	93
2255.9	107
2256.29	131
2256.67	147
2257.06	77
2257.45	147
2257.84	55
2258.22	149
2258.61	89
2259	117
2259.39	95
2259.77	121
2260.16	89
2260.55	119
2260.94	117
2261.32	83
2261.71	161
2262.1	55
2262.48	159
2262.87	99
2263.26	131
2263.65	97
2264.03	119
2264.42	103
2264.81	129
2265.19	123
2265.58	83
2265.97	159
2266.35	57
2266.74	151
2267.13	93
2267.51	131
2267.9	103
2268.29	101
2268.67	87
2269.06	113
2269.45	107
2269.83	109
2270.22	153
2270.61	85
2270.99	119
2271.38	71
2271.77	127
2272.15	115
2272.54	111
2272.93	87
2273.31	137
2273.7	99
2274.08	113
2274.47	133
2274.86	89
2275.24	127
2275.63	103
2276.02	131
2276.4	121
2276.79	105
2277.17	97
2277.56	125
2277.95	117
2278.33	111
2278.72	125
2279.1	97
2279.49	111
2279.88	127
2280.26	97
2280.65	145
2281.03	79
2281.42	105
2281.8	117
2282.19	105
2282.58	121
2282.96	105
2283.35	99
2283.73	131
2284.12	127
2284.5	85
2284.89	153
2285.28	87
2285.66	119
2286.05	123
2286.43	125
2286.82	111
2287.2	111
2287.59	85
2287.97	135
2288.36	121
2288.74	85
2289.13	151
2289.51	71
2289.9	145
2290.28	107
2290.67	131
2291.05	103
2291.44	117
2291.82	101
2292.21	127
2292.59	137
2292.98	49
2293.36	159
2293.75	41
2294.13	167
2294.52	87
2294.9	131
2295.29	105
2295.67	139
2296.06	83
2296.44	133
2296.83	119
2297.21	97
2297.6	157
2297.98	77
2298.36	153
2298.75	89
2299.13	137
2299.52	95
2299.9	155
2300.29	79
2300.67	151
2301.06	119
2301.44	115
2301.82	153
2302.21	77
2302.59	155
2302.98	95
2303.36	135
2303.75	85
2304.13	143
2304.51	73
2304.9	143
2305.28	111
2305.67	109
2306.05	145
2306.44	101
2306.82	149
2307.2	109
2307.59	135
2307.97	119
2308.35	115
2308.74	75
2309.12	143
2309.51	91
2309.89	121
2310.27	133
2310.66	105
2311.04	129
2311.42	125
2311.81	129
2312.19	127
2312.57	115
2312.96	77
2313.34	147
2313.73	109
2314.11	117
2314.49	133
2314.88	89
2315.26	117
2315.64	131
2316.03	107
2316.41	119
2316.79	99
2317.18	89
2317.56	131
2317.94	117
2318.32	97
2318.71	131
2319.09	79
2319.47	129
2319.86	129
2320.24	65
2320.62	145
2321.01	91
2321.39	117
2321.77	133
2322.15	123
2322.54	115
2322.92	127
2323.3	89
2323.69	117
2324.07	147
2324.45	97
2324.83	141
2325.22	73
2325.6	143
2325.98	137
2326.36	123
2326.75	107
2327.13	145
2327.51	95
2327.89	141
2328.28	119
2328.66	75
2329.04	155
2329.42	85
2329.81	135
2330.19	95
2330.57	149
2330.95	101
2331.33	165
2331.72	85
2332.1	135
2332.48	123
2332.86	83
2333.24	165
2333.63	71
2334.01	133
2334.39	87
2334.77	145
2335.15	93
2335.54	157
2335.92	91
2336.3	135
2336.68	131
2337.06	107
2337.44	173
2337.83	81
2338.21	135
2338.59	89
2338.97	133
2339.35	121
2339.73	147
2340.12	75
2340.5	143
2340.88	125
2341.26	101
2341.64	137
2342.02	83
2342.41	145
2342.79	71
2343.17	137
2343.55	113
2343.93	169
2344.31	75
2344.69	141
2345.07	99
2345.45	113
2345.84	157
2346.22	73
2346.6	155
2346.98	99
2347.36	127
2347.74	109
2348.12	133
2348.5	69
2348.88	129
2349.26	117
2349.65	133
2350.03	149
2350.41	91
2350.79	125
2351.17	123
2351.55	137
2351.93	131
2352.31	129
2352.69	61
2353.07	147
2353.45	105
2353.83	123
2354.21	127
2354.59	89
2354.98	127
2355.35	115
2355.74	115
2356.12	119
2356.5	113
2356.88	89
2357.26	125
2357.64	113
2358.02	111
2358.4	123
2358.78	107
2359.16	145
2359.54	155
2359.92	113
2360.3	121
2360.68	119
2361.06	123
2361.44	127
2361.82	147
2362.2	117
2362.58	141
2362.96	93
2363.34	139
2363.72	139
2364.1	73
2364.48	163
2364.86	71
2365.24	127
2365.62	123
2366	147
2366.38	91
2366.75	109
2367.14	83
2367.51	141
2367.89	113
2368.27	63
2368.65	139
2369.03	77
2369.41	119
2369.79	91
2370.17	149
2370.55	101
2370.93	151
2371.31	81
2371.69	155
2372.07	115
2372.45	97
2372.83	151
2373.2	81
2373.58	145
2373.96	81
2374.34	149
2374.72	87
2375.1	145
2375.48	69
2375.86	131
2376.24	111
2376.61	113
2376.99	131
2377.37	65
2377.75	133
2378.13	81
2378.51	149
2378.89	101
2379.27	149
2379.65	55
2380.02	143
2380.4	91
2380.78	111
2381.16	125
2381.54	103
2381.92	125
2382.3	111
2382.67	143
2383.05	113
2383.43	155
2383.81	57
2384.19	157
2384.57	105
2384.94	135
2385.32	139
2385.7	89
2386.08	131
2386.46	109
2386.83	137
2387.21	117
2387.59	141
2387.97	55
2388.35	141
2388.73	109
2389.1	123
2389.48	129
2389.86	99
2390.24	139
2390.62	141
2390.99	121
2391.37	121
2391.75	105
2392.13	89
2392.5	125
2392.88	121
2393.26	127
2393.64	133
2394.01	95
2394.39	137
2394.77	133
2395.15	109
2395.52	131
2395.9	103
2396.28	135
2396.66	147
2397.04	139
2397.41	103
2397.79	129
2398.17	97
2398.54	117
2398.92	119
2399.3	111
2399.68	137
2400.05	103
2400.43	113
2400.81	129
2401.18	143
2401.56	101
2401.94	157
2402.32	85
2402.69	139
2403.07	127
2403.45	83
2403.82	153
2404.2	101
2404.58	153
2404.95	91
2405.33	135
2405.71	81
2406.09	173
2406.46	89
2406.84	149
2407.22	113
2407.59	103
2407.97	153
2408.34	85
2408.72	129
2409.1	127
2409.47	143
2409.85	95
2410.23	161
2410.6	79
2410.98	155
2411.36	119
2411.73	105
2412.11	171
2412.49	103
2412.86	133
2413.24	87
2413.61	145
2413.99	81
2414.37	167
2414.74	55
2415.12	163
2415.5	109
2415.87	111
2416.25	141
2416.62	97
2417	155
2417.37	89
2417.75	143
2418.13	97
2418.5	159
2418.88	75
2419.25	187
2419.63	119
2420.01	141
2420.38	151
2420.76	95
2421.13	135
2421.51	127
2421.88	161
2422.26	113
2422.64	155
2423.01	57
2423.39	169
2423.76	117
2424.14	149
2424.51	143
2424.89	97
2425.26	129
2425.64	139
2426.01	145
2426.39	121
2426.76	137
2427.14	63
2427.52	181
2427.89	113
2428.26	121
2428.64	131
2429.02	95
2429.39	139
2429.77	139
2430.14	139
2430.52	127
2430.89	151
2431.26	113
2431.64	171
2432.02	129
2432.39	127
2432.77	137
2433.14	135
2433.51	151
2433.89	159
2434.26	139
2434.64	169
2435.01	127
2435.39	111
2435.76	171
2436.14	135
2436.51	135
2436.89	133
2437.26	111
2437.63	133
2438.01	165
2438.38	125
2438.76	149
2439.13	119
2439.51	133
2439.88	161
2440.26	151
2440.63	109
2441	139
2441.38	111
2441.75	147
2442.13	139
2442.5	117
2442.87	171
2443.25	123
2443.62	135
2444	135
2444.37	169
2444.74	123
2445.12	185
2445.49	107
2445.87	173
2446.24	147
2446.61	117
2446.99	175
2447.36	105
2447.73	153
2448.11	117
2448.48	177
2448.86	129
2449.23	177
2449.6	97
2449.98	159
2450.35	165
2450.72	139
2451.1	165
2451.47	107
2451.84	159
2452.22	123
2452.59	143
2452.97	111
2453.34	185
2453.71	97
2454.08	195
2454.46	119
2454.83	145
2455.2	151
2455.58	119
2455.95	149
2456.32	123
2456.7	185
2457.07	103
2457.44	195
2457.82	75
2458.19	155
2458.56	129
2458.93	135
2459.31	159
2459.68	133
2460.05	151
2460.43	135
2460.8	143
2461.17	107
2461.54	159
2461.92	61
2462.29	173
2462.66	133
2463.03	147
2463.41	159
2463.78	186.733
2464.15	164.244
2464.52	179.842
2464.9	187.119
2465.27	154.719
2465.64	195.389
2466.01	47
2466.39	163
2466.76	117
2467.13	151
2467.5	117
2467.88	125
2468.25	135
2468.62	159
2468.99	141
2469.37	127
2469.74	147
2470.11	105
2470.48	137
2470.85	119
2471.22	121
2471.6	143
2471.97	97
2472.34	141
2472.71	153
2473.08	109
2473.46	133
2473.83	119
2474.2	97
2474.57	127
2474.94	133
2475.32	105
2475.69	139
2476.06	87
2476.43	139
2476.8	143
2477.17	95
2477.55	141
2477.92	125
2478.29	105
2478.66	125
2479.03	139
2479.4	121
2479.77	163
2480.15	95
2480.52	119
2480.89	137
2481.26	123
2481.63	129
2482	127
2482.37	135
2482.74	125
2483.12	137
2483.49	103
2483.86	167
2484.23	81
2484.6	155
2484.97	121
2485.34	95
2485.71	149
2486.08	119
2486.46	119
2486.83	95
2487.2	155
2487.57	95
2487.94	175
2488.31	63
2488.68	149
2489.05	123
2489.42	117
2489.79	143
2490.16	87
2490.53	129
2490.9	117
2491.27	155
2491.64	95
2492.01	173
2492.38	83
2492.76	169
2493.13	129
2493.5	131
2493.87	143
2494.24	105
2494.61	123
2494.98	109
2495.35	153
2495.72	83
2496.09	185
2496.46	55
2496.83	163
2497.2	99
2497.57	129
2497.94	135
2498.31	77
2498.68	125
2499.05	129
2499.42	165
2499.79	73
2500.16	155
2500.53	57
2500.9	165
2501.27	137
2501.64	131
2502.01	131
2502.38	113
2502.75	129
2503.12	117
2503.49	147
2503.86	109
2504.23	147
2504.6	57
2504.97	143
2505.34	103
2505.7	153
2506.07	119
2506.44	121
2506.81	121
2507.18	129
2507.55	129
2507.92	101
2508.29	153
2508.66	69
2509.03	159
2509.4	105
2509.77	139
2510.14	113
2510.5	101
2510.88	135
2511.24	129
2511.61	127
2511.98	103
2512.35	113
2512.72	95
2513.09	141
2513.46	137
2513.83	117
2514.2	131
2514.56	77
2514.93	151
2515.3	125
2515.67	111
2516.04	141
2516.41	125
2516.78	131
2517.15	161
2517.51	123
2517.88	107
2518.25	121
2518.62	105
2518.99	139
2519.36	121
2519.73	91
2520.09	145
2520.46	91
2520.83	115
2521.2	117
2521.57	137
2521.94	101
2522.3	167
2522.67	75
2523.04	129
2523.41	123
2523.78	93
2524.15	125
2524.51	107
2524.88	135
2525.25	101
2525.62	149
2525.98	97
2526.35	165
2526.72	103
2527.09	149
2527.46	115
2527.83	111
2528.19	145
2528.56	103
2528.93	127
2529.3	101
2529.66	157
2530.03	95
2530.4	177
2530.77	69
2531.13	153
2531.5	105
2531.87	109
2532.24	143
2532.61	107
2532.97	119
2533.34	115
2533.71	149
2534.07	107
2534.44	169
2534.81	45
2535.18	139
2535.54	115
2535.91	135
2536.28	127
2536.65	99
2537.01	101
2537.38	99
2537.75	137
2538.11	103
2538.48	167
2538.85	59
2539.22	163
2539.58	117
2539.95	137
2540.32	119
2540.68	107
2541.05	129
2541.42	125
2541.78	133
2542.15	81
2542.52	143
2542.89	71
2543.25	153
2543.62	125
2543.99	123
2544.35	115
2544.72	121
2545.08	99
2545.45	139
2545.82	105
2546.19	103
2546.55	111
2546.92	87
2547.28	145
2547.65	117
2548.02	133
2548.38	115
2548.75	97
2549.12	127
2549.48	125
2549.85	105
2550.21	133
2550.58	129
2550.95	89
2551.31	141
2551.68	139
2552.05	127
2552.41	155
2552.78	97
2553.14	143
2553.51	129
2553.88	95
2554.24	127
2554.61	115
2554.97	115
2555.34	123
2555.71	137
2556.07	91
2556.44	153
2556.8	95
2557.17	131
2557.53	131
2557.9	91
2558.27	139
2558.63	117
2559	123
2559.36	105
2559.73	141
2560.09	91
2560.46	155
2560.82	81
2561.19	149
2561.55	123
2561.92	91
2562.29	149
2562.65	101
2563.02	105
2563.38	117
2563.75	139
2564.11	101
2564.48	187
2564.84	71
2565.21	167
2565.57	117.159
2565.94	122.745
2566.3	140.807
2566.67	106.377
2567.03	113.373
2567.4	97.79
2567.76	149.031
2568.13	92.1943
2568.49	157.731
2568.86	62.8467
2569.22	148.559
2569.59	115.093
2569.95	115.195
2570.32	151.454
2570.68	103.475
2571.05	122.39
2571.41	113.252
2571.78	132.82
2572.14	94.9725
2572.51	163.575
2572.87	76.2878
2573.23	159.181
2573.6	117.488
2573.96	124.289
2574.33	132.235
2574.69	114.989
2575.06	121.001
2575.42	116.518
2575.79	141.661
2576.15	103.324
2576.51	156.397
2576.88	71.8975
2577.24	150.104
2577.61	132.516
2577.97	137.915
2578.34	119.81
2578.7	109.882
2579.06	115.961
2579.43	111.76
2579.79	132.724
2580.16	106.525
2580.52	155.656
2580.88	86.8957
2581.25	136.759
2581.61	122.804
2581.98	123.37
2582.34	115.979
2582.7	120.842
2583.07	121.765
2583.43	123.616
2583.8	127.29
2584.16	118.319
2584.52	139.037
2584.89	118.098
2585.25	137.594
2585.61	139.322
2585.98	129.639
2586.34	128.48
2586.7	129.337
2587.07	113.805
2587.43	134.147
2587.8	121.423
2588.16	139.672
2588.52	135.807
2588.88	131.891
2589.25	117.135
2589.61	141.363
2589.97	123.907
2590.34	125.941
2590.7	126.549
2591.06	116.317
2591.43	143.196
2591.79	107.193
2592.15	145.598
2592.52	111.136
2592.88	155.378
2593.24	86.6835
2593.61	165.395
2593.97	128.801
2594.33	141.804
2594.7	130.929
2595.06	127.481
2595.42	121.649
2595.78	124.408
2596.15	152.267
2596.51	183.685
2596.87	142.302
2597.24	90.2346
2597.6	160.916
2597.96	109.957
2598.32	140.595
2598.69	139.432
2599.05	138.169
2599.41	123.561
2599.78	159.34
2600.14	144.179
2600.5	119.758
2600.86	151.822
2600.95	163
2601.31	85
2601.68	187
2602.05	125
2602.42	149
2602.78	133
2603.15	127
2603.52	143
2603.89	153
2604.25	151
2604.62	119
2604.99	147
2605.35	89
2605.72	169
2606.09	131
2606.46	135
2606.82	147
2607.19	131
2607.56	129
2607.92	133
2608.29	135
2608.66	125
2609.03	145
2609.39	139
2609.76	151
2610.13	139
2610.49	129
2610.86	157
2611.23	125
2611.59	153
2611.96	147
2612.33	109
2612.69	139
2613.06	161
2613.43	163
2613.79	147
2614.16	169
2614.53	147
2614.89	165
2615.26	125
2615.62	169
2615.99	171
2616.36	133
2616.72	163
2617.09	171
2617.46	145
2617.82	167
2618.19	197
2618.56	145
2618.92	191
2619.29	93
2619.65	179
2620.02	151
2620.39	143
2620.75	183
2621.12	155
2621.48	157
2621.85	159
2622.22	148
2622.58	121
2622.95	149.2
2623.31	125
2623.68	193
2624.04	161
2624.41	165
2624.78	175.4
2625.14	173
2625.51	185
2625.87	169
2626.24	176.5
2626.6	179
2626.97	174.5
2627.34	149
2627.7	199
2628.07	181
2628.43	189
2628.8	185
2629.16	169
2629.53	203
2629.9	189
2630.26	184.5
2630.63	177
2630.99	170.375
2631.36	131
2631.72	163.844
2632.09	177
2632.45	166.211
2632.82	180.211
2633.18	193
2633.55	201
2633.91	179
2634.28	187.5
2634.64	177
2635.01	285
2635.37	151
2635.74	259
2636.1	215
2636.47	235
2636.83	233
2637.2	245
2637.56	225
2637.93	253
2638.29	279
2638.66	253
2639.02	303
2639.39	195
2639.75	311
2640.12	277
2640.48	293
2640.84	257
2641.21	255
2641.57	263
2641.94	313
2642.3	263
2642.67	263
2643.03	321
2643.4	249
2643.76	315
2644.13	283
2644.49	315
2644.85	291
2645.22	271
2645.58	337
2645.95	325
2646.31	333
2646.68	351
2647.04	329
2647.4	329
2647.77	379
2648.13	365
2648.5	315
2648.86	347
2649.22	349
2649.59	367
2649.95	389
2650.32	329
2650.68	369
2651.04	369
2651.41	383
2651.77	421
2652.14	425
2652.5	413
2652.86	421
2653.23	349
2653.59	385
2653.95	447
2654.32	397
2654.68	417
2655.05	391
2655.41	409
2655.77	439
2656.14	461
2656.5	447
2656.86	475
2657.23	441
2657.59	475
2657.95	461
2658.32	469
2658.68	491
2659.04	467
2659.41	471
2659.77	463
2660.13	495
2660.5	499
2660.86	591
2661.22	471
2661.59	523
2661.95	499
2662.31	527
2662.68	519
2663.04	531
2663.4	501
2663.76	475
2664.13	563
2664.49	489
2664.85	575
2665.22	461
2665.58	555
2665.94	515
2666.3	537
2666.67	563
2667.03	521
2667.39	531
2667.76	503
2668.12	575
2668.48	519
2668.84	581
2669.21	499
2669.57	597
2669.93	563
2670.29	559
2670.66	571
2671.02	521
2671.38	493
2671.74	521
2672.11	513
2672.47	487
2672.83	569
2673.19	441
2673.56	561
2673.92	497
2674.28	521
2674.64	483
2675	473
2675.37	457
2675.73	533
2676.09	487
2676.45	433
2676.81	495
2677.18	425
2677.54	483
2677.9	449
2678.26	475
2678.62	415
2678.99	433
2679.35	435
2679.71	473
2680.07	449
2680.43	417
2680.8	425
2681.16	399
2681.52	405
2681.88	413
2682.24	385
2682.6	359
2682.97	385
2683.33	373
2683.69	387
2684.05	359
2684.41	375
2684.77	365
2685.13	339
2685.5	347
2685.86	337
2686.22	337
2686.58	371
2686.94	315
2687.3	339
2687.66	329
2688.03	301
2688.39	319
2688.75	315
2689.11	277
2689.47	295
2689.83	321
2690.19	273
2690.55	307
2690.91	239
2691.28	303
2691.64	293
2692	257
2692.36	281
2692.72	277
2693.08	247
2693.44	211
2693.8	267
2694.16	229
2694.52	299
2694.88	183
2695.24	271
2695.61	227
2695.97	245
2696.33	241
2696.69	219
2697.05	205
2697.41	217
2697.77	243
2698.13	195
2698.49	267
2698.85	181
2699.21	269
2699.57	225
2699.93	255
2700.29	197
2700.65	259
2701.01	175
2701.37	213
2701.73	243
2702.09	211
2702.45	247
2702.81	151
2703.18	269
2703.53	167
2703.89	213
2704.25	155
2704.62	211
2704.98	173
2705.33	191
2705.69	179
2706.06	145
2706.42	217
2706.78	115
2707.13	213
2707.49	177
2707.85	195
2708.22	133
2708.57	207
2708.93	157
2709.29	193
2709.65	173
2710.01	161
2710.37	217
2710.73	101
2711.09	203
2711.45	161
2711.81	217
2712.17	163
2712.53	211
2712.89	115
2713.25	197
2713.61	177
2713.97	149
2714.33	185
2714.69	91
2715.05	207
2715.41	129
2715.76	183
2716.12	129
2716.48	169
2716.84	161
2717.2	197
2717.56	151
2717.92	137
2718.28	185
2718.64	135
2719	181
2719.35	163
2719.71	157
2720.07	137
2720.43	167
2720.79	117
2721.15	157
2721.51	117
2721.87	145
2722.23	175
2722.59	121
2722.94	181
2723.3	175
2723.66	165
2724.02	165
2724.38	141
2724.74	135
2725.1	193
2725.46	131
2725.81	141
2726.17	149
2726.53	125
2726.89	165
2727.25	159
2727.61	127
2727.96	161
2728.32	127
2728.68	139
2729.04	147
2729.4	121
2729.75	125
2730.11	157
2730.47	115
2730.83	135
2731.19	143
2731.55	133
2731.91	169
2732.26	91
2732.62	163
2732.98	131
2733.34	143
2733.69	155
2734.05	157
2734.41	129
2734.77	113
2735.13	159
2735.48	129
2735.84	189
2736.2	85
2736.56	145
2736.91	123
2737.27	145
2737.63	125
2737.99	157
2738.35	119
2738.7	137
2739.06	147
2739.42	117
2739.78	165
2740.13	85
2740.49	167
2740.85	125
2741.21	165
2741.56	115
2741.92	171
2742.28	85
2742.64	159
2742.99	139
2743.35	135
2743.71	171
2744.06	73
2744.42	177
2744.78	131
2745.14	169
2745.49	101
2745.85	155
2746.21	109
2746.57	151
2746.92	117
2747.28	127
2747.64	157
2747.99	85
2748.35	155
2748.71	141
2749.06	157
2749.42	87
2749.78	163
2750.13	115
2750.49	161
2750.85	97
2751.2	125
2751.56	141
2751.92	101
2752.27	181
2752.63	121
2752.99	133
2753.34	89
2753.7	155
2754.06	115
2754.41	147
2754.77	109
2755.13	127
2755.48	165
2755.84	101
2756.2	131
2756.55	137
2756.91	137
2757.26	121
2757.62	135
2757.98	97
2758.33	147
2758.69	105
2759.04	123
2759.4	163
2759.76	113
2760.11	125
2760.47	151
2760.83	111
2761.18	143
2761.54	101
2761.89	107
2762.25	145
2762.61	111
2762.96	121
2763.32	155
2763.67	99
2764.03	93
2764.38	135
2764.74	115
2765.1	145
2765.45	85
2765.81	117
2766.16	119
2766.52	125
2766.88	125
2767.23	159
2767.59	91
2767.94	135
2768.3	117
2768.65	109
2769.01	143
2769.36	85
2769.72	129
2770.07	109
2770.43	161
2770.78	105
2771.14	163
2771.49	85
2771.85	131
2772.21	145
2772.56	113
2772.92	149
2773.27	63
2773.63	149
2773.98	115
2774.34	149
2774.69	83
2775.05	171
2775.4	85
2775.76	149
2776.11	143
2776.47	101
2776.82	169
2777.18	65
2777.53	161
2777.89	127
2778.24	157
2778.59	89
2778.95	155
2779.3	77
2779.66	149
2780.01	111
2780.37	129
2780.72	133
2781.08	73
2781.43	129
2781.79	117
2782.14	171
2782.49	79
2782.85	161
2783.2	63
2783.56	159
2783.91	115
2784.27	133
2784.62	149
2784.98	75
2785.33	141
2785.68	117
2786.04	151
2786.39	71
2786.75	157
2787.1	83
2787.46	171
2787.81	117
2788.16	127
2788.52	151
2788.87	103
2789.22	133
2789.58	147
2789.93	139
2790.29	91
2790.64	167
2790.99	85
2791.35	163
2791.7	101
2792.06	139
2792.41	145
2792.76	115
2793.12	113
2793.47	127
2793.82	127
2794.18	93
2794.53	145
2794.88	75
2795.24	161
2795.59	87
2795.95	103
2796.3	143
2796.65	99
2797.01	107
2797.36	129
2797.71	129
2798.07	133
2798.42	131
2798.77	107
2799.13	149
2799.48	125
2799.83	115
2800.19	147
2800.54	97
2800.89	151
2801.24	147
2801.6	127
2801.95	159
2802.3	127
2802.66	115
2803.01	131
2803.36	111
2803.72	125
2804.07	153
2804.42	85
2804.77	91
2805.13	141
2805.48	119
2805.83	141
2806.19	103
2806.54	133
2806.89	123
2807.24	139
2807.6	115
2807.95	157
2808.3	83
2808.65	117
2809.01	137
2809.36	129
2809.71	153
2810.06	89
2810.42	117
2810.77	125
2811.12	153
2811.47	79
2811.83	175
2812.18	69
2812.53	125
2812.88	121
2813.24	123
2813.59	143
2813.94	65
2814.29	131
2814.64	93
2815	145
2815.35	73
2815.7	167
2816.05	77
2816.4	153
2816.76	121
2817.11	123
2817.46	133
2817.81	83
2818.16	119
2818.52	127
2818.87	153
2819.22	69
2819.57	155
2819.92	79
2820.28	155
2820.63	97
2820.98	143
2821.33	133
2821.68	101
2822.03	135
2822.39	125
2822.74	133
2823.09	69
2823.44	165
2823.79	81
2824.14	163
2824.49	89
2824.85	131
2825.2	127
2825.55	89
2825.9	105
2826.25	117
2826.6	143
2826.95	71
2827.31	153
2827.66	75
2828.01	141
2828.36	79
2828.71	123
2829.06	149
2829.41	111
2829.76	113
2830.11	141
2830.46	121
2830.82	131
2831.17	149
2831.52	101
2831.87	135
2832.22	121
2832.57	123
2832.92	135
2833.27	117
2833.62	113
2833.97	145
2834.32	115
2834.68	125
2835.03	119
2835.38	89
2835.73	127
2836.08	113
2836.43	131
2836.78	159
2837.13	89
2837.48	91
2837.83	135
2838.18	117
2838.53	125
2838.88	103
2839.23	113
2839.58	113
2839.93	129
2840.28	101
2840.63	147
2840.98	71
2841.33	121
2841.68	121
2842.03	125
2842.38	143
2842.73	93
2843.08	109
2843.43	111
2843.78	151
2844.13	87
2844.48	167
2844.83	75
2845.18	151
2845.53	131
2845.88	111
2846.23	137
2846.58	97
2846.93	125
2847.28	127
2847.63	149
2847.98	87
2848.33	161
2848.68	69
2849.03	149
2849.38	99
2849.73	115
2850.08	115
2850.43	81
2850.78	121
2851.13	119
2851.48	163
2851.83	73
2852.18	153
2852.53	61
2852.88	163
2853.23	113
2853.57	133
2853.92	131
2854.27	83
2854.62	133
2854.97	113
2855.32	141
2855.67	69
2856.02	161
2856.37	71
2856.72	141
2857.07	99
2857.42	113
2857.76	119
2858.11	99
2858.46	117
2858.81	129
2859.16	127
2859.51	81
2859.86	165
2860.21	83
2860.56	163
2860.91	75
2861.25	145
2861.6	101
2861.95	127
2862.3	99
2862.65	133
2863	135
2863.35	75
2863.69	159
2864.04	53
2864.39	145
2864.74	89
2865.09	123
2865.44	135
2865.78	97
2866.13	105
2866.48	111
2866.83	125
2867.18	93
2867.53	147
2867.88	87
2868.22	141
2868.57	101
2868.92	123
2869.27	137
2869.62	113
2869.96	93
2870.31	117
2870.66	113
2871.01	135
2871.36	133
2871.7	97
2872.05	147
2872.4	87
2872.75	129
2873.1	123
2873.44	93
2873.79	95
2874.14	145
2874.49	115
2874.84	121
2875.18	107
2875.53	107
2875.88	145
2876.23	129
2876.57	123
2876.92	147
2877.27	103
2877.62	93
2877.97	133
2878.31	105
2878.66	133
2879.01	111
2879.36	115
2879.7	115
2880.05	141
2880.4	103
2880.74	151
2881.09	71
2881.44	117
2881.79	127
2882.13	103
2882.48	145
2882.83	71
2883.18	107
2883.52	111
2883.87	125
2884.22	79
2884.56	169
2884.91	65
2885.26	129
2885.61	109
2885.95	109
2886.3	127
2886.65	75
2886.99	121
2887.34	107
2887.69	125
2888.03	85
2888.38	159
2888.73	83
2889.07	161
2889.42	115
2889.77	121
2890.11	127
2890.46	67
2890.81	107
2891.15	105
2891.5	139
2891.85	53
2892.19	165
2892.54	73
2892.89	151
2893.23	89
2893.58	119
2893.93	119
2894.27	91
2894.62	113
2894.96	121
2895.31	135
2895.66	69
2896	155
2896.35	59.2
2896.7	146.477
2897.04	68.2055
2897.39	143.499
2897.73	113.291
2898.08	119.134
2898.43	101.18
2898.77	135.287
2899.12	139.057
2899.46	98.4258
2899.81	155.381
2900.16	78.2779
2900.5	147.793
2900.85	82.0039
2901.19	123.692
2901.54	115.456
2901.88	106.235
2902.23	90.7013
2902.58	131.636
2902.92	107.971
2903.27	96.144
2903.61	142.041
2903.96	89.7641
2904.31	131.276
2904.65	106.677
2905	105.837
2905.34	118.18
2905.69	101.744
2906.03	93.3404
2906.38	126.905
2906.72	111.175
2907.07	113.191
2907.42	137.597
2907.76	106.614
2908.11	110.562
2908.45	121.717
2908.8	100.794
2909.14	118.54
2909.49	115.31
2909.83	103.456
2910.18	112.013
2910.52	138.429
2910.87	108.773
2911.21	115.97
2911.56	107.222
2911.9	117.198
2912.25	133.267
2912.59	97.5952
2912.94	132.291
2913.28	93.9056
2913.63	121.394
2913.97	120.21
2914.32	128.533
2914.66	94.3274
2915.01	124.236
2915.35	125.215
2915.7	113.953
2916.04	128.473
2916.39	88.5868
2916.73	129.588
2917.08	90.8366
2917.42	118.996
2917.77	108.595
2918.11	131.664
2918.46	104.897
2918.8	101.722
2919.15	115.195
2919.49	108.9
2919.83	134.311
2920.18	103.143
2920.52	126.793
2920.87	96.094
2921.21	119.123
2921.56	119.061
2921.9	131.745
2922.24	109.364
2922.59	101.664
2922.93	124.36
2923.28	115.069
2923.62	129.981
2923.97	113.236
2924.31	117.517
2924.65	98.7414
2925	114.506
2925.34	116.282
2925.69	120.247
2926.03	120.747
2926.38	90.1134
2926.72	146.287
2927.06	122.405
2927.41	124.547
2927.75	108.092
2928.09	105.636
2928.44	117.278
2928.78	118.424
2929.13	120.201
2929.47	95.7518
2929.81	137.097
2930.16	83.1011
2930.5	146.987
2930.79	95
2931.14	111
2931.49	115
2931.84	73
2932.19	105
2932.54	109
2932.88	119
2933.23	137
2933.58	147
2933.93	61
2934.28	163
2934.63	103
2934.97	121
2935.32	119
2935.67	103
2936.02	105
2936.37	121
2936.71	123
2937.06	117
2937.41	119
2937.76	79
2938.11	141
2938.46	111
2938.8	129
2939.15	99
2939.5	89
2939.85	131
2940.19	135
2940.54	113
2940.89	117
2941.24	121
2941.59	83
2941.93	129
2942.28	113
2942.63	105
2942.98	125
2943.32	93
2943.67	117
2944.02	141
2944.37	99
2944.72	129
2945.06	115
2945.41	117
2945.76	121
2946.11	113
2946.45	103
2946.8	137
2947.15	83
2947.49	111
2947.84	117
2948.19	81
2948.54	133
2948.88	113
2949.23	101
2949.58	123
2949.93	125
2950.27	105
2950.62	135
2950.97	83
2951.31	125
2951.66	113
2952.01	95
2952.35	117
2952.7	105
2953.05	95
2953.4	101
2953.74	125
2954.09	95
2954.44	175
2954.78	77
2955.13	153
2955.48	105
2955.82	135
2956.17	137
2956.52	129
2956.86	119
2957.21	111
2957.56	167
2957.9	89
2958.25	171
2958.6	67
2958.94	143
2959.29	109
2959.64	143
2959.98	99
2960.33	127
2960.68	99
2961.02	95
2961.37	111
2961.72	79
2962.06	149
2962.41	37
2962.76	147
2963.1	93
2963.45	143
2963.79	89
2964.14	127
2964.49	93
2964.83	127
2965.18	127
2965.52	107
2965.87	159
2966.22	49
2966.56	137
2966.91	103
2967.25	153
2967.6	81
2967.95	119
2968.29	89
2968.64	131
2968.98	119
2969.33	121
2969.68	151
2970.02	45
2970.37	145
2970.71	95
2971.06	121
2971.4	87
2971.75	119
2972.1	105
2972.44	133
2972.79	107
2973.13	119
2973.48	121
2973.82	77
2974.17	131
2974.51	121
2974.86	121
2975.21	101
2975.55	127
2975.9	97
2976.24	157
2976.59	85
2976.93	121
2977.28	137
2977.62	115
2977.97	153
2978.31	125
2978.66	117
2979	117
2979.35	123
2979.69	93
2980.04	133
2980.38	99
2980.73	123
2981.07	133
2981.42	77
2981.76	113
2982.11	123
2982.45	99
2982.8	113
2983.14	101
2983.49	101
2983.83	121
2984.18	109
2984.52	107
2984.87	125
2985.21	107
2985.56	119
2985.9	141
2986.25	113
2986.59	137
2986.94	105
2987.28	107
2987.62	127
2987.97	107
2988.31	119
2988.66	165
2989	101
2989.35	109
2989.69	123
2990.03	103
2990.38	155
2990.72	77
2991.07	105
2991.41	113
2991.76	111
2992.1	101
2992.44	147
2992.79	87
2993.13	99
2993.48	127
2993.82	105
2994.17	153
2994.51	79
2994.85	149
2995.2	113
2995.54	117
2995.89	85
2996.23	129
2996.57	97
2996.92	125
2997.26	143
2997.6	97
2997.95	157
2998.29	63
2998.64	137
2998.98	131
2999.32	125
2999.67	97
