#Acq. time (s)=	30
#Accumulations=	1
#Range (cm-¹)=	1050...3000 (30 s) 
#Windows=	6
#Auto scanning=	Off
#Autofocus=	Off
#AutoExposure=	Off
#Spike filter=	Off
#Delay time (s)=	0
#Binning=	1
#Readout mode=	Signal
#DeNoise=	Off
#ICS correction=	Off
#Dark correction=	Off
#Inst. Process=	Off
#Detector Gain=	High Sensitivity
#Detector ADC=	45 kHz       
#Detector temperature (°C)=	-60.1
#Instrument=	LabRAM
#Detector=	Syncerity
#Objective=	x50LWD
#Grating=	1800
#Filter=	25%
#Laser (nm)=	532
#Hole=	100
#E-Cal_Neon=	0
#StageXY=	Marzhauser
#StageZ=	Marzhauser
#X (µm)=	0
#Y (µm)=	0
#Z (µm)=	-1678.85
#Spectral res.(cm-¹)=	1.9
#Full time(mm:ss)=	3:08
#AC=	Not calibrated
#Project=	
#Sample=	
#Site=	
#Title=	RT
#Remark=	
#Date=	19.02.2026 09:52
#Acquired=	19.02.2026 09:52:11
#Edit:Spike=	19.02.2026 09:52:56
#Edit:Spike=	19.02.2026 09:53:14
#Edit:Spike=	19.02.2026 09:53:16
#Edit:Spike=	19.02.2026 09:53:46
#Edit:Spike=	19.02.2026 09:53:50
#Edit:Spike=	19.02.2026 09:54:17
#AxisType[0]=Intens
#AxisUnit[0]=Cnt
#AxisType[1]=Spectr
#AxisUnit[1]=1/cm
1050.13	115
1050.59	139
1051.05	169
1051.51	97
1051.97	119
1052.44	139
1052.9	119
1053.36	155
1053.82	117
1054.28	137
1054.74	157
1055.2	131
1055.67	137
1056.13	135
1056.59	109
1057.05	105
1057.51	127
1057.97	109
1058.43	147
1058.89	77
1059.36	139
1059.82	113
1060.28	151
1060.74	103
1061.2	151
1061.66	111
1062.12	127
1062.58	165
1063.04	113
1063.5	143
1063.96	75
1064.43	153
1064.89	107
1065.35	137
1065.81	101
1066.27	159
1066.73	79
1067.19	117
1067.65	137
1068.11	105
1068.57	165
1069.03	67
1069.49	145
1069.95	115
1070.41	165
1070.87	81
1071.33	151
1071.79	107
1072.25	131
1072.71	147
1073.17	119
1073.63	169
1074.09	63
1074.55	139
1075.01	123
1075.47	141
1075.93	93
1076.39	149
1076.85	89
1077.31	151
1077.77	131
1078.23	125
1078.69	155
1079.15	83
1079.61	153
1080.07	123
1080.53	157
1080.99	97
1081.45	153
1081.91	81
1082.37	145
1082.83	117
1083.29	143
1083.75	143
1084.21	81
1084.66	125
1085.12	139
1085.58	139
1086.04	79
1086.5	169
1086.96	93
1087.42	147
1087.88	103
1088.34	143
1088.8	147
1089.25	95
1089.71	145
1090.17	125
1090.63	141
1091.09	95
1091.55	147
1092.01	109
1092.47	151
1092.92	123
1093.38	131
1093.84	151
1094.3	105
1094.76	123
1095.22	163
1095.68	135
1096.13	105
1096.59	135
1097.05	99
1097.51	125
1097.97	109
1098.43	145
1098.88	159
1099.34	111
1099.8	117
1100.26	149
1100.72	129
1101.17	119
1101.63	147
1102.09	115
1102.55	151
1103.01	117
1103.46	123
1103.92	143
1104.38	87
1104.84	117
1105.29	137
1105.75	129
1106.21	133
1106.67	129
1107.12	123
1107.58	117
1108.04	121
1108.5	113
1108.95	147
1109.41	97
1109.87	109
1110.33	137
1110.78	117
1111.24	171
1111.7	99
1112.16	129
1112.61	99
1113.07	127
1113.53	113
1113.98	157
1114.44	99
1114.9	97
1115.35	157
1115.81	127
1116.27	157
1116.72	97
1117.18	139
1117.64	125
1118.1	141
1118.55	95
1119.01	147
1119.47	83
1119.92	113
1120.38	119
1120.84	123
1121.29	131
1121.75	97
1122.2	119
1122.66	121
1123.12	147
1123.57	89
1124.03	169
1124.49	85
1124.94	167
1125.4	115
1125.86	145
1126.31	143
1126.77	105
1127.22	123
1127.68	139
1128.14	161
1128.59	73
1129.05	179
1129.5	81
1129.96	151
1130.41	121
1130.87	163
1131.33	143
1131.78	81
1132.24	131
1132.69	121
1133.15	159
1133.61	79
1134.06	167
1134.52	87
1134.97	137
1135.43	107
1135.88	121
1136.34	127
1136.79	127
1137.25	125
1137.7	145
1138.16	141
1138.61	83
1139.07	161
1139.52	119
1139.98	167
1140.43	105
1140.89	145
1141.34	157
1141.8	123
1142.25	117
1142.71	155
1143.16	133
1143.62	89
1144.07	145
1144.53	59
1144.98	147
1145.44	99
1145.89	119
1146.35	131
1146.8	115
1147.26	117
1147.71	141
1148.16	117
1148.62	115
1149.07	149
1149.53	113
1149.98	151
1150.44	97
1150.89	113
1151.35	159
1151.8	111
1152.25	107
1152.71	133
1153.16	127
1153.62	141
1154.07	139
1154.52	109
1154.98	123
1155.43	125
1155.89	119
1156.34	155
1156.79	99
1157.25	111
1157.7	135
1158.16	129
1158.61	123
1159.06	119
1159.52	111
1159.97	123
1160.42	137
1160.88	117
1161.33	139
1161.78	83
1162.24	103
1162.69	143
1163.14	127
1163.6	137
1164.05	103
1164.5	129
1164.96	133
1165.41	155
1165.86	149
1166.32	130.2
1166.77	73
1167.22	141
1167.68	139
1168.13	121
1168.58	141
1169.04	101
1169.49	131
1169.94	113
1170.39	155
1170.85	87
1171.3	161
1171.75	97
1172.2	121
1172.66	141
1173.11	103
1173.56	129
1174.01	93
1174.47	121
1174.92	125
1175.37	149
1175.82	89
1176.28	159
1176.73	71
1177.18	147
1177.63	139
1178.09	115
1178.54	145
1178.99	109
1179.44	127
1179.89	127
1180.35	145
1180.8	87
1181.25	183
1181.7	61
1182.15	135
1182.61	117
1183.06	155
1183.51	107
1183.96	115
1184.41	127
1184.87	129
1185.32	129
1185.77	61
1186.22	175
1186.67	71
1187.12	157
1187.58	101
1188.03	129
1188.48	135
1188.93	93
1189.38	121
1189.83	131
1190.28	147
1190.73	87
1191.19	157
1191.64	89
1192.09	143
1192.54	109
1192.99	145
1193.44	131
1193.89	117
1194.34	119
1194.8	119
1195.25	109
1195.7	87
1196.15	163
1196.6	73
1197.05	143
1197.5	103
1197.95	155
1198.4	139
1198.85	123
1199.3	113
1199.75	121
1200.2	139
1200.66	113
1201.11	161
1201.56	109
1202.01	145
1202.46	89
1202.91	131
1203.36	139
1203.81	105
1204.26	111
1204.71	145
1205.16	135
1205.61	123
1206.06	139
1206.51	113
1206.96	147
1207.41	113
1207.86	127
1208.31	161
1208.76	95
1209.21	89
1209.66	121
1210.11	137
1210.56	123
1211.01	105
1211.46	109
1211.91	115
1212.36	125
1212.81	117
1213.26	145
1213.71	107
1214.16	99
1214.61	143
1215.05	123
1215.51	123
1215.95	121
1216.4	117
1216.85	153
1217.3	163
1217.75	91
1218.2	147
1218.65	77
1219.1	119
1219.55	143
1220	139
1220.45	133
1220.9	113
1221.34	107
1221.79	117
1222.24	143
1222.69	91
1223.14	153
1223.59	91
1224.04	145
1224.49	113
1224.94	137
1225.38	131
1225.83	113
1226.28	111
1226.73	97
1227.18	157
1227.63	77
1228.07	177
1228.52	65
1228.97	143
1229.42	129
1229.87	135
1230.32	113
1230.76	99
1231.21	119
1231.66	139
1232.11	127
1232.56	79
1233.01	169
1233.45	79
1233.9	141
1234.35	93
1234.8	131
1235.25	125
1235.69	135
1236.14	131
1236.59	135
1237.04	141
1237.49	89
1237.93	183
1238.38	77
1238.83	159
1239.28	95
1239.72	135
1240.17	115
1240.62	135
1241.07	91
1241.51	139
1241.96	131
1242.41	89
1242.86	165
1243.3	69
1243.75	157
1244.2	101
1244.65	151
1245.09	131
1245.54	111
1245.99	105
1246.44	141
1246.88	119
1247.33	99
1247.78	157
1248.22	95
1248.67	153
1249.12	105
1249.56	129
1250.01	133
1250.46	133
1250.9	109
1251.35	159
1251.8	119
1252.24	113
1252.69	153
1253.14	97
1253.58	151
1254.03	99
1254.48	147
1254.92	127
1255.37	133
1255.82	77
1256.26	151
1256.71	139
1257.15	133
1257.6	135
1258.05	91
1258.49	133
1258.94	109
1259.39	127
1259.83	139
1260.28	113
1260.72	109
1261.17	157
1261.62	133
1262.06	115
1262.51	129
1262.95	105
1263.4	139
1263.85	131
1264.29	107
1264.74	147
1265.18	103
1265.63	115
1266.07	153
1266.52	119
1266.97	129
1267.41	141
1267.86	115
1268.3	121
1268.75	143
1269.19	95
1269.64	165
1270.08	91
1270.53	109
1270.97	129
1271.42	107
1271.86	117
1272.31	127
1272.76	125
1273.2	133
1273.64	147
1274.09	107
1274.53	159
1274.98	93
1275.42	123
1275.87	147
1276.31	139
1276.76	135
1277.2	111
1277.65	107
1278.09	139
1278.54	155
1278.98	107
1279.43	169
1279.87	87
1280.32	145
1280.76	123
1281.21	141
1281.65	133
1282.09	109
1282.54	139
1282.98	129
1283.43	141
1283.87	87
1284.32	157
1284.76	97
1285.21	157
1285.65	119
1286.09	135
1286.54	141
1286.98	125
1287.42	137
1287.87	143
1288.31	167
1288.76	81
1289.2	187
1289.64	75
1290.09	159
1290.53	107
1290.98	143
1291.42	107
1291.86	137
1292.31	119
1292.75	147
1293.19	137
1293.64	85
1294.08	183
1294.53	75
1294.97	145
1295.41	95
1295.85	127
1296.3	129
1296.74	145
1297.19	193
1297.63	169.621
1298.07	190.84
1298.51	190.267
1298.96	183.067
1299.4	65
1299.84	157
1300.29	107
1300.73	143
1301.17	131
1301.62	139
1302.06	105
1302.5	123
1302.94	117
1303.39	107
1303.83	173
1304.27	105
1304.72	157
1305.16	105
1305.6	147
1306.04	147
1306.49	135
1306.93	105
1307.37	141
1307.81	111
1308.26	117
1308.7	139
1309.14	107
1309.58	147
1310.03	97
1310.47	155
1310.91	141
1311.35	131
1311.8	103
1312.24	153
1312.68	133
1313.12	119
1313.56	127
1314	107
1314.45	143
1314.89	125
1315.33	123
1315.77	147
1316.22	125
1316.66	105
1317.1	147
1317.54	159
1317.98	135
1318.43	137
1318.87	113
1319.31	153
1319.75	125
1320.19	109
1320.63	169
1321.07	113
1321.51	145
1321.96	139
1322.4	139
1322.84	131
1323.28	119
1323.72	113
1324.16	145
1324.6	153
1325.05	109
1325.49	177
1325.93	95
1326.37	131
1326.81	147
1327.25	135
1327.69	147
1328.13	135
1328.57	111
1329.02	155
1329.45	159
1329.9	107
1330.34	173
1330.78	135
1331.22	163
1331.66	123
1332.1	167
1332.54	149
1332.98	149
1333.42	105
1333.86	153
1334.3	173
1334.74	113
1335.18	187
1335.62	115
1336.07	171
1336.5	141
1336.95	181
1337.39	141
1337.83	171
1338.27	139
1338.71	155
1339.15	189
1339.59	123
1340.03	201
1340.47	115
1340.91	187
1341.35	141
1341.79	197
1342.23	147
1342.67	159
1343.11	145
1343.55	171
1343.99	175
1344.43	141
1344.86	189
1345.31	127
1345.74	177
1346.18	145
1346.62	161
1347.06	159
1347.5	165
1347.94	127
1348.38	183
1348.82	161
1349.26	143
1349.7	193
1350.14	115
1350.58	185
1351.02	123
1351.46	191
1351.9	139
1352.33	149
1352.77	129
1353.21	165
1353.65	151
1354.09	137
1354.53	191
1354.97	99
1355.41	177
1355.85	101
1356.29	149
1356.72	155
1357.16	125
1357.6	123
1358.04	175
1358.48	143
1358.92	133
1359.36	151
1359.79	121
1360.23	169
1360.67	127
1361.11	157
1361.55	141
1361.99	147
1362.43	93
1362.87	145
1363.3	127
1363.74	123
1364.18	157
1364.62	107
1365.06	139
1365.49	123
1365.93	133
1366.37	141
1366.81	131
1367.25	99
1367.68	163
1368.12	125
1368.56	139
1369	133
1369.44	93
1369.87	137
1370.31	125
1370.75	141
1371.19	133
1371.62	101
1372.06	109
1372.5	155
1372.94	139
1373.37	123
1373.81	131
1374.25	127
1374.69	137
1375.12	145
1375.56	117
1376	167
1376.44	109
1376.87	125
1377.31	127
1377.75	133
1378.19	127
1378.62	125
1379.06	111
1379.5	115
1379.93	143
1380.37	121
1380.81	159
1381.25	101
1381.68	137
1382.12	141
1382.56	135
1382.99	107
1383.43	123
1383.87	95
1384.3	153
1384.74	149
1385.18	91
1385.61	175
1386.05	83
1386.49	153
1386.92	127
1387.36	147
1387.8	97
1388.23	153
1388.67	103
1389.1	141
1389.54	131
1389.98	81
1390.41	149
1390.85	87
1391.29	157
1391.72	87
1392.16	149
1392.59	85
1393.03	141
1393.47	91
1393.9	135
1394.34	137
1394.77	91
1395.21	163
1395.65	91
1396.08	143
1396.52	97
1396.95	151
1397.39	119
1397.82	145
1398.26	81
1398.7	139
1399.13	127
1399.57	97
1400	143
1400.44	103
1400.87	163
1401.31	103
1401.74	149
1402.18	125
1402.62	167
1403.05	89
1403.49	165
1403.92	113
1404.36	121
1404.79	145
1405.23	79
1405.66	133
1406.1	97
1406.53	131
1406.97	117
1407.4	135
1407.84	83
1408.27	143
1408.71	133
1409.14	115
1409.58	147
1410.01	89
1410.45	135
1410.88	107
1411.31	123
1411.75	129
1412.18	139
1412.62	99
1413.05	155
1413.49	123
1413.92	131
1414.36	145
1414.79	115
1415.23	109
1415.66	135
1416.1	119
1416.53	139
1416.96	115
1417.4	111
1417.83	141
1418.27	115
1418.7	113
1419.13	111
1419.57	111
1420	113
1420.44	143
1420.87	107
1421.3	151
1421.74	95
1422.17	119
1422.61	121
1423.04	139
1423.47	111
1423.91	131
1424.34	95
1424.77	143
1425.21	147
1425.64	113
1426.07	149
1426.51	107
1426.94	153
1427.38	131
1427.81	143
1428.24	91
1428.68	145
1429.11	97
1429.54	123
1429.98	131
1430.41	97
1430.84	163
1431.28	91
1431.71	129
1432.14	109
1432.57	145
1433.01	103
1433.44	159
1433.87	95
1434.31	129
1434.74	139
1435.17	87
1435.61	169
1436.04	95
1436.47	145
1436.9	119
1437.34	139
1437.77	101
1438.2	173
1438.63	107
1439.07	145
1439.5	135
1439.93	101
1440.36	155
1440.8	93
1441.23	141
1441.66	91
1442.09	133
1442.53	119
1442.96	147
1443.39	73
1443.82	161
1444.26	117
1444.69	107
1445.12	169
1445.55	95
1445.98	141
1446.42	97
1446.85	147
1447.28	101
1447.71	147
1448.14	75
1448.57	141
1449.01	113
1449.44	129
1449.87	137
1450.3	85
1450.73	147
1451.17	101
1451.6	151
1452.03	119
1452.46	129
1452.89	85
1453.32	131
1453.76	141
1454.19	117
1454.62	157
1455.05	101
1455.48	125
1455.91	115
1456.34	129
1456.77	103
1457.21	139
1457.64	93
1458.07	157
1458.5	110.873
1458.93	132.92
1459.36	132.494
1459.79	103.812
1460.22	117.446
1460.65	120.415
1461.08	125.261
1461.52	119.215
1461.95	133.042
1462.38	87.1915
1462.81	141.348
1463.24	125.923
1463.67	112.485
1464.1	139.608
1464.53	103.396
1464.96	124.647
1465.39	126.406
1465.82	128.476
1466.25	136.801
1466.68	109.137
1467.11	105.039
1467.54	132.102
1467.98	129.499
1468.41	110.109
1468.84	128.444
1469.27	93.8866
1469.7	138.766
1470.13	130.055
1470.56	104.485
1470.99	138.47
1471.42	110.734
1471.85	114.709
1472.28	132.385
1472.71	130.457
1473.14	120.665
1473.57	126.966
1474	97.1061
1474.43	137.324
1474.86	135.008
1475.29	119.248
1475.72	132.456
1476.15	102.981
1476.58	120.35
1477.01	136.17
1477.44	129.471
1477.87	117.507
1478.3	133.807
1478.72	87.6197
1479.15	125.07
1479.58	128.491
1480.01	97.9474
1480.44	139.598
1480.87	96.4341
1481.3	143.363
1481.73	131.99
1482.16	137.007
1482.59	107.289
1483.02	130.21
1483.45	111.743
1483.88	132.499
1484.31	137.022
1484.74	99.4037
1485.17	148.292
1485.59	103.167
1486.02	125.684
1486.45	118.209
1486.88	111.786
1487.31	122.182
1487.74	114.857
1488.17	113.055
1488.6	131.602
1489.02	130.251
1489.45	112.707
1489.88	145.151
1490.31	102.742
1490.74	124.282
1491.17	122.247
1491.6	111.882
1492.03	122.377
1492.45	123.09
1492.88	104.241
1493.31	128.473
1493.74	135.225
1494.17	109.611
1494.6	125.305
1495.02	109.92
1495.45	121.445
1495.88	131.447
1496.31	116.483
1496.74	117.054
1497.17	121.26
1497.59	106.359
1498.02	109.706
1498.45	119.754
1498.88	126.914
1499.31	134.383
1499.73	118.906
1500.16	106.968
1500.59	128.822
1501.02	107.84
1501.45	121.223
1501.87	129.466
1502.13	99
1502.56	139
1502.99	83
1503.43	159
1503.86	99
1504.29	183
1504.72	81
1505.16	153
1505.59	119
1506.02	105
1506.46	133
1506.89	85
1507.32	111
1507.75	101
1508.19	149
1508.62	99
1509.05	143
1509.49	79
1509.92	143
1510.35	121
1510.78	129
1511.21	125
1511.65	101
1512.08	121
1512.51	121
1512.94	139
1513.38	89
1513.81	157
1514.24	65
1514.67	177
1515.11	107
1515.54	149
1515.97	127
1516.4	131
1516.83	117
1517.27	133
1517.7	141
1518.13	101
1518.56	153
1518.99	63
1519.42	151
1519.86	129
1520.29	119
1520.72	135
1521.15	107
1521.58	105
1522.01	127
1522.45	115
1522.88	109
1523.31	125
1523.74	81
1524.17	151
1524.6	127
1525.04	117
1525.47	121
1525.9	113
1526.33	137
1526.76	153
1527.19	113
1527.62	127
1528.05	121
1528.49	115
1528.92	137
1529.35	123
1529.78	131
1530.21	133
1530.64	111
1531.07	131
1531.5	137
1531.93	119
1532.37	133
1532.8	121
1533.23	103
1533.66	135
1534.09	133
1534.52	113
1534.95	127
1535.38	81
1535.81	127
1536.24	137
1536.67	115
1537.1	147
1537.53	115
1537.96	111
1538.39	115
1538.82	153
1539.26	89
1539.68	167
1540.12	105
1540.55	151
1540.98	131
1541.41	115
1541.84	145
1542.27	105
1542.7	107
1543.13	117
1543.56	141
1543.99	97
1544.42	163
1544.85	79
1545.28	143
1545.71	113
1546.14	121
1546.57	141
1547	109
1547.43	113
1547.86	113
1548.29	141
1548.72	93
1549.14	167
1549.57	57
1550.01	161
1550.43	111
1550.86	141
1551.29	125
1551.72	129
1552.15	141
1552.58	125
1553.01	165
1553.44	95
1553.87	205
1554.3	87
1554.73	177
1555.16	111
1555.59	149
1556.01	147
1556.44	127
1556.87	135
1557.3	105
1557.73	157
1558.16	111
1558.59	163
1559.02	55
1559.45	183
1559.88	145
1560.3	137
1560.73	131
1561.16	119
1561.59	127
1562.02	159
1562.45	151
1562.88	123
1563.31	163
1563.73	99
1564.16	159
1564.59	127
1565.02	143
1565.45	125
1565.88	163
1566.3	127
1566.73	165
1567.16	153
1567.59	139
1568.02	179
1568.45	81
1568.88	195
1569.3	145
1569.73	167
1570.16	131
1570.59	165
1571.01	161
1571.44	165
1571.87	167
1572.3	165
1572.73	199
1573.15	127
1573.58	183
1574.01	163
1574.44	159
1574.87	169
1575.29	149
1575.72	207
1576.15	219
1576.58	195
1577	205
1577.43	221
1577.86	167
1578.29	189
1578.71	219
1579.14	221
1579.57	223
1580	225
1580.42	239
1580.85	261
1581.28	235
1581.71	251
1582.13	255
1582.56	229
1582.99	295
1583.41	263
1583.84	265
1584.27	301
1584.7	279
1585.12	335
1585.55	337
1585.98	321
1586.4	349
1586.83	407
1587.26	409
1587.68	421
1588.11	493
1588.54	467
1588.96	545
1589.39	517
1589.82	571
1590.24	593
1590.67	623
1591.1	669
1591.52	687
1591.95	667
1592.38	693
1592.8	807
1593.23	691
1593.65	759
1594.08	689
1594.51	757
1594.93	723
1595.36	633
1595.79	661
1596.21	611
1596.64	665
1597.06	567
1597.49	623
1597.92	487
1598.34	591
1598.77	453
1599.19	417
1599.62	389
1600.05	361
1600.47	357
1600.9	325
1601.32	287
1601.75	281
1602.18	293
1602.6	247
1603.03	307
1603.45	173
1603.88	233
1604.3	183
1604.73	229
1605.15	193
1605.58	185
1606	185
1606.43	169
1606.86	189
1607.28	149
1607.71	225
1608.13	121
1608.56	203
1608.98	151
1609.41	159
1609.83	155
1610.26	167
1610.68	159
1611.11	151
1611.53	177
1611.96	113
1612.38	203
1612.81	75
1613.23	173
1613.66	143
1614.08	149
1614.51	125
1614.93	143
1615.36	131
1615.78	145
1616.21	165
1616.63	141
1617.06	161
1617.48	83
1617.9	157
1618.33	131
1618.75	155
1619.18	133
1619.6	137
1620.03	129
1620.45	155
1620.88	149
1621.3	127
1621.72	149
1622.15	99
1622.57	191
1623	125
1623.42	151
1623.85	133
1624.27	135
1624.69	139
1625.12	145
1625.54	133
1625.97	145
1626.39	161
1626.81	109
1627.24	173
1627.66	139
1628.08	149
1628.51	113
1628.93	107
1629.36	135
1629.78	141
1630.2	113
1630.63	133
1631.05	135
1631.47	127
1631.9	157
1632.32	139
1632.74	129
1633.17	139
1633.59	127
1634.01	135
1634.44	163
1634.86	115
1635.28	123
1635.71	147
1636.13	121
1636.55	129
1636.98	157
1637.4	127
1637.82	151
1638.25	99
1638.67	121
1639.09	131
1639.51	119
1639.94	115
1640.36	149
1640.78	111
1641.21	109
1641.63	139
1642.05	111
1642.47	175
1642.9	77
1643.32	131
1643.74	109
1644.17	131
1644.59	113
1645.01	139
1645.43	115
1645.86	101
1646.28	145
1646.7	101
1647.12	173
1647.55	77
1647.97	155
1648.39	107
1648.81	133
1649.23	113
1649.66	143
1650.08	111
1650.5	127
1650.92	139
1651.35	119
1651.77	179
1652.19	57
1652.61	133
1653.03	111
1653.45	145
1653.88	107
1654.3	139
1654.72	95
1655.14	137
1655.56	139
1655.99	115
1656.41	153
1656.83	77
1657.25	149
1657.67	105
1658.09	159
1658.52	105
1658.94	133
1659.36	99
1659.78	139
1660.2	137
1660.62	95
1661.04	165
1661.47	55
1661.89	141
1662.31	89
1662.73	145
1663.15	95
1663.57	133
1663.99	91
1664.41	133
1664.83	125
1665.26	113
1665.68	165
1666.1	65
1666.52	139
1666.94	117
1667.36	127
1667.78	83
1668.2	135
1668.62	109
1669.04	145
1669.46	131
1669.89	117
1670.31	143
1670.73	77
1671.15	153
1671.57	107
1671.99	129
1672.41	89
1672.83	117
1673.25	113
1673.67	149
1674.09	103
1674.51	127
1674.93	145
1675.35	87
1675.77	123
1676.19	117
1676.61	127
1677.03	101
1677.45	127
1677.87	109
1678.29	127
1678.71	89
1679.13	111
1679.55	149
1679.97	91
1680.39	115
1680.81	139
1681.23	113
1681.65	119
1682.07	107
1682.49	113
1682.91	129
1683.33	107
1683.75	131
1684.17	135
1684.59	97
1685.01	117
1685.43	143
1685.85	129
1686.27	123
1686.69	109
1687.11	109
1687.53	143
1687.95	83
1688.37	123
1688.78	127
1689.2	115
1689.62	115
1690.04	137
1690.46	121
1690.88	143
1691.3	99
1691.72	139
1692.14	111
1692.56	107
1692.98	117
1693.39	135
1693.81	99
1694.23	117
1694.65	141
1695.07	111
1695.49	171
1695.91	79
1696.33	141
1696.75	103
1697.16	137
1697.58	99
1698	143
1698.42	85
1698.84	125
1699.26	127
1699.68	111
1700.09	157
1700.51	61
1700.93	139
1701.35	101
1701.77	135
1702.19	89
1702.6	145
1703.02	73
1703.44	109
1703.86	105
1704.28	113
1704.69	145
1705.11	73
1705.53	139
1705.95	107
1706.37	157
1706.78	113
1707.2	149
1707.62	67
1708.04	137
1708.46	127
1708.87	129
1709.29	137
1709.71	53
1710.13	139
1710.54	119
1710.96	121
1711.38	59
1711.8	147
1712.22	85
1712.63	139
1713.05	117
1713.47	101
1713.89	159
1714.3	89
1714.72	135
1715.14	121
1715.56	127
1715.97	109
1716.39	143
1716.81	87
1717.22	135
1717.64	99
1718.06	119
1718.48	145
1718.89	99
1719.31	115
1719.73	137
1720.14	113
1720.56	117
1720.98	153
1721.39	97
1721.81	157
1722.23	105
1722.64	125
1723.06	135
1723.48	113
1723.89	93
1724.31	125
1724.73	109
1725.14	107
1725.56	109
1725.98	99
1726.39	143
1726.81	91
1727.23	109
1727.64	147
1728.06	91
1728.48	115
1728.89	131
1729.31	119
1729.72	125
1730.14	119
1730.56	101
1730.97	117
1731.39	119
1731.8	111
1732.22	133
1732.64	95
1733.05	111
1733.47	131
1733.89	95
1734.3	139
1734.72	87
1735.13	113
1735.55	109
1735.96	123
1736.38	99
1736.8	143
1737.21	99
1737.63	113
1738.04	145
1738.46	123
1738.87	137
1739.29	97
1739.71	119
1740.12	137
1740.54	123
1740.95	101
1741.37	147
1741.78	89
1742.2	111
1742.61	131
1743.03	123
1743.44	129
1743.86	79
1744.27	105
1744.69	107
1745.1	151
1745.52	95
1745.93	155
1746.35	61
1746.77	145
1747.18	115
1747.59	109
1748.01	129
1748.42	77
1748.84	139
1749.25	97
1749.67	143
1750.08	77
1750.5	147
1750.91	79
1751.33	153
1751.74	127
1752.16	117
1752.57	127
1752.99	71
1753.4	131
1753.81	107
1754.23	121
1754.64	71
1755.06	167
1755.47	83
1755.89	139
1756.3	103
1756.72	131
1757.13	105
1757.54	75
1757.96	111
1758.37	101
1758.78	141
1759.2	79
1759.61	173
1760.03	69
1760.44	161
1760.86	107
1761.27	105
1761.68	123
1762.1	79
1762.51	123
1762.92	115
1763.34	137
1763.75	91
1764.17	163
1764.58	79
1764.99	147
1765.41	103
1765.82	127
1766.23	125
1766.65	97
1767.06	113
1767.47	117
1767.89	121
1768.3	83
1768.71	139
1769.13	65
1769.54	143
1769.95	97
1770.37	105
1770.78	119
1771.19	107
1771.61	101
1772.02	153
1772.43	115
1772.85	93
1773.26	135
1773.67	85
1774.09	125
1774.5	101
1774.91	113
1775.32	125
1775.74	101
1776.15	99
1776.56	149
1776.97	119
1777.39	111
1777.8	149
1778.21	109
1778.62	141
1779.04	97
1779.45	113
1779.86	131
1780.28	101
1780.69	93
1781.1	129
1781.51	129
1781.92	123
1782.34	123
1782.75	93
1783.16	125
1783.57	109
1783.99	99
1784.4	151
1784.81	91
1785.22	93
1785.63	133
1786.05	123
1786.46	141
1786.87	99
1787.28	109
1787.69	111
1788.11	139
1788.52	83
1788.93	147
1789.34	91
1789.75	97
1790.17	123
1790.58	95
1790.99	129
1791.4	95
1791.81	101
1792.22	117
1792.63	139
1793.05	83
1793.46	149
1793.87	85
1794.28	123
1794.69	103
1795.1	123
1795.52	111
1795.93	83
1796.34	111
1796.75	115
1797.16	139
1797.57	77
1797.98	165
1798.39	37
1798.81	151
1799.22	115
1799.63	131
1800.04	113
1800.45	113
1800.86	117
1801.27	115
1801.68	135
1802.09	73
1802.5	169
1802.91	59
1803.32	135
1803.73	97
1804.15	131
1804.56	121
1804.97	89
1805.38	103
1805.79	137
1806.2	115
1806.61	83
1807.02	169
1807.43	69
1807.84	161
1808.25	87
1808.66	143
1809.07	111
1809.48	127
1809.89	109
1810.3	131
1810.71	117
1811.12	73
1811.53	157
1811.94	73
1812.35	149
1812.76	99
1813.17	123
1813.58	107
1813.99	121
1814.4	93
1814.81	127
1815.22	119
1815.63	81
1816.04	137
1816.45	83
1816.86	127
1817.27	79
1817.68	107
1818.09	111
1818.5	103
1818.91	75
1819.32	131
1819.73	107
1820.14	105
1820.55	151
1820.96	89
1821.37	137
1821.78	115
1822.19	113
1822.6	113
1823.01	107
1823.42	83
1823.82	137
1824.23	125
1824.64	133
1825.05	121
1825.46	91
1825.87	139
1826.28	109
1826.69	111
1827.1	125
1827.51	95
1827.91	83
1828.32	131
1828.73	99
1829.14	103
1829.55	129
1829.96	109
1830.37	121
1830.78	127
1831.18	99
1831.59	145
1832	95
1832.41	121
1832.82	107
1833.23	127
1833.64	107
1834.05	103
1834.45	101
1834.86	119
1835.27	149
1835.68	83
1836.09	151
1836.49	71
1836.9	105
1837.31	125
1837.72	109
1838.13	103
1838.53	99
1838.94	107
1839.35	125
1839.76	147
1840.17	83
1840.58	133
1840.98	87
1841.39	111
1841.8	123
1842.21	115
1842.61	129
1843.02	111
1843.43	99
1843.84	103
1844.25	143
1844.65	73
1845.06	159
1845.47	71
1845.88	115
1846.28	98.9946
1846.69	122.909
1847.1	118.891
1847.51	101.381
1847.91	102.932
1848.32	131.584
1848.73	133.608
1849.14	81.2188
1849.54	165.294
1849.95	72.1213
1850.36	145.065
1850.77	115.666
1851.17	131.354
1851.58	109.954
1851.99	101.292
1852.39	98.6759
1852.8	130.015
1853.21	131.285
1853.62	69.8266
1854.02	155.002
1854.43	83.2914
1854.84	134.304
1855.24	101.787
1855.65	127.602
1856.06	114.051
1856.46	129.177
1856.87	106.617
1857.28	112.383
1857.68	123.134
1858.09	89.3281
1858.5	159.928
1858.9	89.2647
1859.31	118.479
1859.72	99.7549
1860.12	133.191
1860.53	106.516
1860.94	131.233
1861.34	87.3678
1861.75	132.743
1862.15	125.495
1862.56	119.52
1862.97	129.819
1863.37	112.397
1863.78	125.752
1864.19	90.854
1864.59	132.15
1865	112.506
1865.4	140.515
1865.81	78.9676
1866.22	130.175
1866.62	120.287
1867.03	109.042
1867.43	138.153
1867.84	104.842
1868.25	121.869
1868.65	99.2567
1869.06	119.696
1869.46	110.452
1869.87	129.94
1870.28	92.1986
1870.68	130.313
1871.09	117.651
1871.49	141.511
1871.9	131.754
1872.3	117.569
1872.71	122.227
1873.12	118.588
1873.52	128.564
1873.93	116.434
1874.33	123.713
1874.74	94.6743
1875.14	116.598
1875.55	118.593
1875.95	134.995
1876.36	118.66
1876.76	108.113
1877.17	114.879
1877.57	109.302
1877.98	117.81
1878.38	106.491
1878.79	120.456
1879.19	109.052
1879.6	108.222
1880	116.37
1880.41	112.96
1880.81	106.688
1881.22	108.921
1881.63	123.752
1882.03	100.805
1882.43	127.867
1882.84	110.213
1883.24	111.378
1883.65	119.903
1884.05	109.159
1884.46	117.517
1884.86	120.402
1885.27	117.045
1885.67	110.071
1886.08	137.342
1886.48	107.128
1886.89	137.357
1887.29	104.644
1887.69	125.112
1888.1	116.841
1888.5	90.033
1888.85	117
1889.26	133
1889.67	127
1890.08	107
1890.49	145
1890.9	83
1891.3	153
1891.71	81
1892.12	115
1892.53	145
1892.94	91
1893.35	117
1893.76	139
1894.17	125
1894.58	125
1894.99	117
1895.4	107
1895.81	151
1896.22	111
1896.62	117
1897.03	125
1897.44	95
1897.85	97
1898.26	133
1898.67	107
1899.08	121
1899.49	111
1899.9	95
1900.3	129
1900.71	113
1901.12	95
1901.53	133
1901.94	91
1902.35	117
1902.75	115
1903.16	93
1903.57	141
1903.98	97
1904.39	95
1904.8	119
1905.21	125
1905.61	97
1906.02	143
1906.43	99
1906.84	117
1907.25	123
1907.66	129
1908.06	107
1908.47	85
1908.88	151
1909.29	101
1909.7	135
1910.1	117
1910.51	143
1910.92	81
1911.33	131
1911.73	135
1912.14	87
1912.55	143
1912.96	73
1913.37	117
1913.77	109
1914.18	137
1914.59	75
1915	151
1915.4	83
1915.81	123
1916.22	117
1916.63	107
1917.03	127
1917.44	93
1917.85	133
1918.26	131
1918.66	131
1919.07	69
1919.48	167
1919.89	75
1920.29	141
1920.7	107
1921.11	119
1921.51	143
1921.92	77
1922.33	123
1922.73	119
1923.14	149
1923.55	51
1923.96	151
1924.36	63
1924.77	135
1925.18	103
1925.58	113
1925.99	125
1926.4	83
1926.8	113
1927.21	113
1927.62	135
1928.02	67
1928.43	145
1928.84	97
1929.24	139
1929.65	99
1930.06	125
1930.46	131
1930.87	105
1931.28	123
1931.68	141
1932.09	111
1932.49	97
1932.9	141
1933.31	99
1933.71	147
1934.12	89
1934.53	115
1934.93	119
1935.34	109
1935.74	115
1936.15	131
1936.56	119
1936.96	85
1937.37	133
1937.78	85
1938.18	133
1938.59	89
1938.99	123
1939.4	143
1939.8	105
1940.21	109
1940.62	121
1941.02	123
1941.43	119
1941.83	133
1942.24	91
1942.64	145
1943.05	97
1943.45	113
1943.86	131
1944.27	103
1944.67	113
1945.08	123
1945.48	111
1945.89	125
1946.29	111
1946.7	97
1947.1	107
1947.51	105
1947.91	103
1948.32	137
1948.72	93
1949.13	85
1949.53	137
1949.94	107
1950.34	141
1950.75	89
1951.15	93
1951.56	125
1951.96	137
1952.37	101
1952.77	145
1953.18	95
1953.58	111
1953.99	125
1954.39	121
1954.8	135
1955.2	99
1955.61	91
1956.01	119
1956.42	131
1956.82	101
1957.23	157
1957.63	81
1958.03	125
1958.44	113
1958.84	109
1959.25	123
1959.65	97
1960.06	121
1960.46	121
1960.86	159
1961.27	67
1961.67	163
1962.08	81
1962.48	147
1962.89	119
1963.29	127
1963.69	143
1964.1	107
1964.5	95
1964.91	125
1965.31	153
1965.71	95
1966.12	157
1966.52	73
1966.93	151
1967.33	105
1967.73	123
1968.14	121
1968.54	93
1968.94	109
1969.35	135
1969.75	141
1970.15	75
1970.56	163
1970.96	67
1971.37	149
1971.77	83
1972.17	119
1972.58	139
1972.98	113
1973.38	111
1973.79	123
1974.19	139
1974.59	139.8
1974.99	166
1975.4	160
1975.8	139.56
1976.21	93
1976.61	139
1977.01	117
1977.41	121
1977.82	109
1978.22	131
1978.62	125
1979.03	79
1979.43	153
1979.83	105
1980.24	159
1980.64	107
1981.04	143
1981.44	133
1981.85	107
1982.25	119
1982.65	127
1983.05	109
1983.46	109
1983.86	145
1984.26	97
1984.66	135
1985.07	83
1985.47	135
1985.87	117
1986.27	105
1986.68	81
1987.08	119
1987.48	123
1987.88	119
1988.29	137
1988.69	103
1989.09	145
1989.49	103
1989.89	117
1990.3	111
1990.7	103
1991.1	101
1991.5	135
1991.9	125
1992.31	111
1992.71	121
1993.11	91
1993.51	131
1993.91	131
1994.32	101
1994.72	143
1995.12	101
1995.52	101
1995.92	147
1996.32	113
1996.73	135
1997.13	125
1997.53	107
1997.93	127
1998.33	135
1998.73	113
1999.14	155
1999.54	85
1999.94	113
2000.34	139
2000.74	115
2001.14	135
2001.54	107
2001.94	119
2002.35	149
2002.75	149
2003.15	103
2003.55	149
2003.95	85
2004.35	125
2004.75	127
2005.15	107
2005.55	101
2005.96	89
2006.36	123
2006.76	125
2007.16	139
2007.56	81
2007.96	173
2008.36	69
2008.76	141
2009.16	127
2009.56	129
2009.96	131
2010.36	117
2010.76	127
2011.16	117
2011.57	155
2011.97	69
2012.37	161
2012.77	75
2013.17	121
2013.57	121
2013.97	129
2014.37	115
2014.77	91
2015.17	131
2015.57	115
2015.97	145
2016.37	75
2016.77	147
2017.17	95
2017.57	137
2017.97	107
2018.37	131
2018.77	91
2019.17	131
2019.57	101
2019.97	139
2020.37	139
2020.77	77
2021.17	177
2021.57	87
2021.97	167
2022.37	93
2022.77	137
2023.17	105
2023.57	127
2023.97	101
2024.37	137
2024.77	121
2025.17	71
2025.57	145
2025.97	75
2026.37	141
2026.77	71
2027.16	119
2027.56	119
2027.96	117
2028.36	93
2028.76	141
2029.16	129
2029.56	95
2029.96	145
2030.36	77
2030.76	141
2031.16	93
2031.56	127
2031.96	99
2032.35	149
2032.75	93
2033.15	131
2033.55	119
2033.95	121
2034.35	141
2034.75	87
2035.15	137
2035.54	101
2035.94	139
2036.34	121
2036.74	137
2037.14	87
2037.54	149
2037.94	139
2038.34	115
2038.74	137
2039.13	91
2039.53	119
2039.93	99
2040.33	119
2040.73	131
2041.12	105
2041.52	115
2041.92	149
2042.32	123
2042.72	121
2043.12	119
2043.51	101
2043.91	127
2044.31	129
2044.71	97
2045.11	145
2045.51	97
2045.9	101
2046.3	143
2046.7	113
2047.1	123
2047.49	123
2047.89	105
2048.29	117
2048.69	131
2049.09	97
2049.48	151
2049.88	93
2050.28	103
2050.68	119
2051.07	119
2051.47	111
2051.87	119
2052.27	93
2052.67	111
2053.06	121
2053.46	85
2053.86	125
2054.26	91
2054.65	131
2055.05	115
2055.45	151
2055.85	111
2056.24	115
2056.64	113
2057.04	135
2057.43	111
2057.83	83
2058.23	159
2058.62	83
2059.02	133
2059.42	105
2059.82	137
2060.21	123
2060.61	129
2061.01	125
2061.4	117
2061.8	135
2062.2	75
2062.59	145
2062.99	83
2063.39	129
2063.79	103
2064.18	143
2064.58	97
2064.97	131
2065.37	93
2065.77	123
2066.16	115
2066.56	91
2066.96	149
2067.35	79
2067.75	145
2068.15	97
2068.54	131
2068.94	105
2069.34	149
2069.73	93
2070.13	131
2070.52	113
2070.92	75
2071.32	163
2071.71	63
2072.11	135
2072.51	83
2072.9	143
2073.3	87
2073.69	147
2074.09	73
2074.49	113
2074.88	125
2075.28	77
2075.67	159
2076.07	91
2076.47	131
2076.86	79
2077.26	143
2077.65	103
2078.05	143
2078.44	81
2078.84	155
2079.23	133
2079.63	109
2080.03	145
2080.42	93
2080.82	139
2081.21	99
2081.61	121
2082	99
2082.4	151
2082.79	73
2083.19	153
2083.58	113
2083.98	119
2084.37	123
2084.77	85
2085.16	139
2085.56	97
2085.95	141
2086.35	99
2086.74	121
2087.14	57
2087.53	141
2087.93	131
2088.32	125
2088.72	123
2089.11	93
2089.51	129
2089.9	115
2090.3	119
2090.69	113
2091.09	103
2091.48	83
2091.88	155
2092.27	111
2092.67	103
2093.06	131
2093.46	103
2093.85	117
2094.25	155
2094.64	107
2095.03	141
2095.43	121
2095.82	83
2096.22	109
2096.61	119
2097.01	117
2097.4	125
2097.79	79
2098.19	123
2098.58	133
2098.98	105
2099.37	143
2099.76	95
2100.16	107
2100.55	123
2100.95	131
2101.34	109
2101.73	137
2102.13	109
2102.52	115
2102.92	143
2103.31	97
2103.7	135
2104.1	91
2104.49	127
2104.88	103
2105.28	141
2105.67	101
2106.07	123
2106.46	89
2106.85	125
2107.25	127
2107.64	87
2108.03	149
2108.43	87
2108.82	143
2109.21	89
2109.61	127
2110	77
2110.39	131
2110.79	85
2111.18	125
2111.57	109
2111.97	95
2112.36	155
2112.75	91
2113.15	139
2113.54	83
2113.93	137
2114.32	99
2114.72	167
2115.11	79
2115.5	153
2115.9	119
2116.29	101
2116.68	155
2117.08	93
2117.47	129
2117.86	95
2118.25	139
2118.65	105
2119.04	149
2119.43	51
2119.82	129
2120.22	103
2120.61	127
2121	139
2121.39	105
2121.79	115
2122.18	99
2122.57	135
2122.96	97
2123.36	143
2123.75	75
2124.14	145
2124.53	115
2124.93	109
2125.32	135
2125.71	97
2126.1	107
2126.49	129
2126.89	127
2127.28	109
2127.67	127
2128.06	67
2128.45	137
2128.85	99
2129.24	117
2129.63	139
2130.02	119
2130.41	131
2130.81	123
2131.2	123
2131.59	103
2131.98	141
2132.37	71
2132.76	151
2133.16	115
2133.55	109
2133.94	131
2134.33	105
2134.72	127
2135.11	121
2135.5	115
2135.9	129
2136.29	123
2136.68	87
2137.07	127
2137.46	143
2137.85	117
2138.24	115
2138.63	99
2139.03	119
2139.42	133
2139.81	107
2140.2	129
2140.59	103
2140.98	109
2141.37	117
2141.76	151
2142.15	93
2142.55	129
2142.94	95
2143.33	127
2143.72	133
2144.11	87
2144.5	135
2144.89	111
2145.28	123
2145.67	101
2146.06	123
2146.45	89
2146.84	135
2147.23	77
2147.62	147
2148.02	109
2148.4	105
2148.8	139
2149.19	103
2149.58	113
2149.97	101
2150.36	143
2150.75	99
2151.14	151
2151.53	53
2151.92	139
2152.31	111
2152.7	85
2153.09	121
2153.48	99
2153.87	123
2154.26	79
2154.65	141
2155.04	85
2155.43	167
2155.82	69
2156.21	125
2156.6	109
2156.99	79
2157.38	145
2157.77	101
2158.16	135
2158.55	79
2158.94	125
2159.33	105
2159.72	137
2160.11	67
2160.5	133
2160.89	103
2161.28	125
2161.66	121
2162.05	105
2162.44	129
2162.83	107
2163.22	129
2163.61	97
2164	163
2164.39	35
2164.78	141
2165.17	115
2165.56	123
2165.95	129
2166.34	107
2166.73	115
2167.11	101
2167.5	139
2167.89	83
2168.28	131
2168.67	53
2169.06	159
2169.45	129
2169.84	117
2170.23	127
2170.62	109
2171	93
2171.39	97
2171.78	131
2172.17	97
2172.56	149
2172.95	65
2173.34	131
2173.73	115
2174.11	131
2174.5	141
2174.89	119
2175.28	107
2175.67	127
2176.06	119
2176.45	119
2176.83	121
2177.22	75
2177.61	123
2178	117
2178.39	105
2178.78	99
2179.16	101
2179.55	105
2179.94	131
2180.33	113
2180.72	97
2181.1	115
2181.49	79
2181.88	135
2182.27	123
2182.66	121
2183.04	109
2183.43	99
2183.82	107
2184.21	139
2184.6	93
2184.98	109
2185.37	109
2185.76	89
2186.15	113
2186.53	147
2186.92	81
2187.31	135
2187.7	89
2188.08	113
2188.47	125
2188.86	85
2189.25	117
2189.63	89
2190.02	119
2190.41	91
2190.8	151
2191.18	85
2191.57	129
2191.96	97
2192.34	139
2192.73	105
2193.12	93
2193.51	119
2193.89	109
2194.28	105
2194.67	101
2195.06	127
2195.44	99
2195.83	151
2196.22	53
2196.6	123
2196.99	101
2197.38	129
2197.76	117
2198.15	137
2198.54	103
2198.92	87
2199.31	135
2199.7	75
2200.08	159
2200.47	37
2200.86	137
2201.24	105
2201.63	141
2202.02	97
2202.4	111
2202.79	115
2203.18	113
2203.56	133
2203.95	85
2204.34	161
2204.72	39
2205.11	139
2205.49	105
2205.88	129
2206.27	111
2206.65	109
2207.04	107
2207.43	117
2207.81	125
2208.2	93
2208.58	141
2208.97	53
2209.36	145
2209.74	95
2210.13	121
2210.51	99
2210.9	113
2211.29	87
2211.67	129
2212.06	117
2212.44	117
2212.83	137
2213.21	61
2213.6	147
2213.98	107
2214.37	135
2214.76	107
2215.14	131
2215.53	99
2215.91	120.94
2216.3	111.138
2216.69	99.0515
2217.07	130.166
2217.46	66.2072
2217.84	138.691
2218.23	108.771
2218.61	108.175
2219	110.713
2219.38	114.986
2219.77	114.499
2220.15	117.607
2220.54	115.696
2220.92	105.109
2221.31	131.162
2221.69	95.4262
2222.08	119.011
2222.46	113.854
2222.85	109.347
2223.23	99.3572
2223.62	114.487
2224	100.051
2224.39	121.595
2224.77	103.115
2225.16	102.128
2225.54	119.385
2225.93	87.8695
2226.31	134.464
2226.7	123.797
2227.08	104.785
2227.47	110.601
2227.85	110.688
2228.23	123.863
2228.62	119.633
2229	127.269
2229.39	112.656
2229.77	124.095
2230.16	100.566
2230.54	110.986
2230.92	123.75
2231.31	102.965
2231.69	113.353
2232.08	102.66
2232.46	114.401
2232.85	102.758
2233.23	112.657
2233.62	106.79
2234	112.209
2234.38	98.1846
2234.77	104.794
2235.15	127.938
2235.54	104.309
2235.92	128.078
2236.3	105.409
2236.69	132.583
2237.07	117.752
2237.46	108.355
2237.84	113.201
2238.22	109.908
2238.61	108.432
2238.99	109.774
2239.37	129.332
2239.76	108.029
2240.14	128.865
2240.53	99.5085
2240.91	128.623
2241.29	106.279
2241.68	110.632
2242.06	131.707
2242.44	108.87
2242.83	116.967
2243.21	95.1392
2243.59	118.923
2243.98	101.063
2244.36	107.457
2244.74	90.9625
2245.13	121.976
2245.51	112.911
2245.89	107.608
2246.28	133.746
2246.66	95.9915
2247.04	125.549
2247.43	92.6855
2247.81	123.636
2248.19	115.108
2248.58	127.268
2248.96	92.7358
2249.34	129.942
2249.73	100.299
2250.11	105.029
2250.49	119.644
2250.88	91.5043
2251.26	133.473
2251.64	90.6943
2252.02	142.204
2252.41	112.914
2252.79	122.889
2252.8	123
2253.18	79
2253.57	125
2253.96	103
2254.35	105
2254.74	137
2255.12	85
2255.51	117
2255.9	103
2256.29	127
2256.67	117
2257.06	77
2257.45	77
2257.84	131
2258.22	125
2258.61	99
2259	121
2259.39	93
2259.77	105
2260.16	119
2260.55	115
2260.94	139
2261.32	83
2261.71	93
2262.1	127
2262.48	129
2262.87	117
2263.26	115
2263.65	97
2264.03	125
2264.42	127
2264.81	81
2265.19	139
2265.58	83
2265.97	105
2266.35	139
2266.74	117
2267.13	121
2267.51	99
2267.9	97
2268.29	111
2268.67	139
2269.06	83
2269.45	151
2269.83	75
2270.22	135
2270.61	127
2270.99	117
2271.38	111
2271.77	93
2272.15	105
2272.54	123
2272.93	133
2273.31	69
2273.7	161
2274.08	91
2274.47	127
2274.86	103
2275.24	145
2275.63	95
2276.02	113
2276.4	103
2276.79	121
2277.17	121
2277.56	65
2277.95	157
2278.33	77
2278.72	139
2279.1	97
2279.49	127
2279.88	95
2280.26	139
2280.65	91
2281.03	135
2281.42	129
2281.8	75
2282.19	147
2282.58	75
2282.96	141
2283.35	107
2283.73	123
2284.12	111
2284.5	121
2284.89	103
2285.28	143
2285.66	135
2286.05	81
2286.43	147
2286.82	63
2287.2	153
2287.59	79
2287.97	157
2288.36	99
2288.74	127
2289.13	87
2289.51	121
2289.9	111
2290.28	93
2290.67	141
2291.05	75
2291.44	143
2291.82	89
2292.21	135
2292.59	127
2292.98	121
2293.36	83
2293.75	143
2294.13	121
2294.52	99
2294.9	143
2295.29	79
2295.67	127
2296.06	105
2296.44	133
2296.83	121
2297.21	109
2297.6	83
2297.98	137
2298.36	117
2298.75	97
2299.13	123
2299.52	95
2299.9	113
2300.29	97
2300.67	119
2301.06	113
2301.44	113
2301.82	85
2302.21	161
2302.59	113
2302.98	125
2303.36	113
2303.75	115
2304.13	131
2304.51	131
2304.9	111
2305.28	131
2305.67	111
2306.05	95
2306.44	153
2306.82	103
2307.2	107
2307.59	127
2307.97	97
2308.35	127
2308.74	121
2309.12	89
2309.51	153
2309.89	85
2310.27	109
2310.66	135
2311.04	123
2311.42	117
2311.81	115
2312.19	119
2312.57	105
2312.96	141
2313.34	105
2313.73	159
2314.11	83
2314.49	119
2314.88	125
2315.26	123
2315.64	95
2316.03	115
2316.41	107
2316.79	117
2317.18	131
2317.56	99
2317.94	155
2318.32	79
2318.71	121
2319.09	107
2319.47	151
2319.86	109
2320.24	117
2320.62	87
2321.01	123
2321.39	121
2321.77	79
2322.15	145
2322.54	65
2322.92	137
2323.3	101
2323.69	135
2324.07	101
2324.45	137
2324.83	99
2325.22	125
2325.6	141
2325.98	83
2326.36	157
2326.75	67
2327.13	171
2327.51	101
2327.89	147
2328.28	103
2328.66	149
2329.04	111
2329.42	133
2329.81	135
2330.19	87
2330.57	167
2330.95	79
2331.33	169
2331.72	117
2332.1	135
2332.48	91
2332.86	135
2333.24	81
2333.63	129
2334.01	123
2334.39	91
2334.77	145
2335.15	67
2335.54	137
2335.92	65
2336.3	131
2336.68	113
2337.06	141
2337.44	85
2337.83	151
2338.21	117
2338.59	77
2338.97	169
2339.35	77
2339.73	137
2340.12	83
2340.5	135
2340.88	125
2341.26	137
2341.64	95
2342.02	139
2342.41	131
2342.79	103
2343.17	139
2343.55	89
2343.93	137
2344.31	95
2344.69	121
2345.07	121
2345.45	109
2345.84	81
2346.22	149
2346.6	123
2346.98	123
2347.36	135
2347.74	93
2348.12	127
2348.5	123
2348.88	129
2349.26	137
2349.65	109
2350.03	81
2350.41	135
2350.79	111
2351.17	107
2351.55	119
2351.93	105
2352.31	117
2352.69	127
2353.07	113
2353.45	133
2353.83	103
2354.21	97
2354.59	127
2354.98	127
2355.35	115
2355.74	109
2356.12	91
2356.5	113
2356.88	153
2357.26	107
2357.64	153
2358.02	85
2358.4	121
2358.78	149
2359.16	133
2359.54	109
2359.92	127
2360.3	111
2360.68	119
2361.06	145
2361.44	91
2361.82	151
2362.2	85
2362.58	129
2362.96	135
2363.34	117
2363.72	101
2364.1	111
2364.48	85
2364.86	121
2365.24	129
2365.62	81
2366	147
2366.38	87
2366.75	131
2367.14	103
2367.51	131
2367.89	91
2368.27	123
2368.65	91
2369.03	129
2369.41	145
2369.79	101
2370.17	149
2370.55	73
2370.93	159
2371.31	87
2371.69	141
2372.07	91
2372.45	151
2372.83	111
2373.2	127
2373.58	137
2373.96	71
2374.34	163
2374.72	85
2375.1	169
2375.48	119
2375.86	159
2376.24	105
2376.61	133
2376.99	89
2377.37	133
2377.75	119
2378.13	77
2378.51	161
2378.89	99
2379.27	135
2379.65	103
2380.02	139
2380.4	99
2380.78	157
2381.16	71
2381.54	153
2381.92	131
2382.3	125
2382.67	153
2383.05	87
2383.43	153
2383.81	121
2384.19	143
2384.57	113
2384.94	119
2385.32	83
2385.7	149
2386.08	115
2386.46	91
2386.83	133
2387.21	93
2387.59	137
2387.97	105
2388.35	149
2388.73	115
2389.1	137
2389.48	71
2389.86	131
2390.24	123
2390.62	119
2390.99	119
2391.37	103
2391.75	119
2392.13	121
2392.5	117
2392.88	109
2393.26	125
2393.64	81
2394.01	147
2394.39	119
2394.77	125
2395.15	131
2395.52	103
2395.9	123
2396.28	133
2396.66	123
2397.04	133
2397.41	121
2397.79	87
2398.17	137
2398.54	107
2398.92	113
2399.3	121
2399.68	107
2400.05	125
2400.43	121
2400.81	115
2401.18	141
2401.56	117
2401.94	119
2402.32	123
2402.69	117
2403.07	125
2403.45	123
2403.82	93
2404.2	135
2404.58	157
2404.95	105
2405.33	141
2405.71	109
2406.09	115
2406.46	123
2406.84	135
2407.22	105
2407.59	107
2407.97	99
2408.34	125
2408.72	135
2409.1	91
2409.47	159
2409.85	87
2410.23	129
2410.6	125
2410.98	131
2411.36	101
2411.73	145
2412.11	103
2412.49	129
2412.86	147
2413.24	101
2413.61	161
2413.99	91
2414.37	131
2414.74	107
2415.12	145
2415.5	85
2415.87	155
2416.25	89
2416.62	147
2417	125
2417.37	97
2417.75	155
2418.13	87
2418.5	149
2418.88	93
2419.25	179
2419.63	95
2420.01	181
2420.38	93
2420.76	135
2421.13	117
2421.51	89
2421.88	147
2422.26	99
2422.64	159
2423.01	113
2423.39	153
2423.76	131
2424.14	153
2424.51	69
2424.89	139
2425.26	113
2425.64	107
2426.01	131
2426.39	81
2426.76	127
2427.14	95
2427.52	147
2427.89	121
2428.26	139
2428.64	67
2429.02	147
2429.39	127
2429.77	139
2430.14	151
2430.52	91
2430.89	133
2431.26	111
2431.64	151
2432.02	111
2432.39	137
2432.77	87
2433.14	145
2433.51	119
2433.89	135
2434.26	155
2434.64	103
2435.01	137
2435.39	131
2435.76	133
2436.14	139
2436.51	123
2436.89	111
2437.26	133
2437.63	133
2438.01	147
2438.38	131
2438.76	109
2439.13	121
2439.51	175
2439.88	115
2440.26	157
2440.63	107
2441	121
2441.38	139
2441.75	163
2442.13	168.7
2442.5	158.8
2442.87	178.3
2443.25	145
2443.62	163
2444	127
2444.37	163
2444.74	149
2445.12	171
2445.49	133
2445.87	153
2446.24	119
2446.61	151
2446.99	131
2447.36	171
2447.73	147
2448.11	135
2448.48	183
2448.86	101
2449.23	149
2449.6	121
2449.98	175
2450.35	127
2450.72	191
2451.1	127
2451.47	153
2451.84	157
2452.22	123
2452.59	199
2452.97	127
2453.34	179
2453.71	129
2454.08	207
2454.46	129
2454.83	185
2455.2	135
2455.58	183
2455.95	189
2456.32	123
2456.7	177
2457.07	123
2457.44	171
2457.82	145
2458.19	197
2458.56	141
2458.93	201
2459.31	107
2459.68	193
2460.05	161
2460.43	163
2460.8	179
2461.17	115
2461.54	175
2461.92	141
2462.29	203
2462.66	137
2463.03	193
2463.41	111
2463.78	193
2464.15	173
2464.52	145
2464.9	169
2465.27	125
2465.64	185
2466.01	157
2466.39	199
2466.76	117
2467.13	181
2467.5	119
2467.88	171
2468.25	147
2468.62	151
2468.99	169
2469.37	139
2469.74	153
2470.11	145
2470.48	145
2470.85	133
2471.22	175
2471.6	105
2471.97	157
2472.34	171
2472.71	167
2473.08	161
2473.46	133
2473.83	143
2474.2	145
2474.57	151
2474.94	135
2475.32	165
2475.69	95
2476.06	151
2476.43	139
2476.8	165
2477.17	143
2477.55	137
2477.92	155
2478.29	141
2478.66	145
2479.03	147
2479.4	159
2479.77	93
2480.15	159
2480.52	157
2480.89	143
2481.26	159
2481.63	109
2482	163
2482.37	173
2482.74	125
2483.12	153
2483.49	131
2483.86	103
2484.23	155
2484.6	155
2484.97	139
2485.34	139
2485.71	115
2486.08	155
2486.46	161
2486.83	141
2487.2	167
2487.57	127
2487.94	141
2488.31	149
2488.68	139
2489.05	127
2489.42	137
2489.79	143
2490.16	143.5
2490.53	147.1
2490.9	167
2491.27	145
2491.64	129
2492.01	143
2492.38	139
2492.76	147
2493.13	123
2493.5	157
2493.87	103
2494.24	139
2494.61	141
2494.98	109
2495.35	155
2495.72	117
2496.09	143
2496.46	117
2496.83	151
2497.2	115
2497.57	189
2497.94	83
2498.31	161
2498.68	143
2499.05	113
2499.42	141
2499.79	97
2500.16	149
2500.53	111
2500.9	137
2501.27	105
2501.64	179
2502.01	109
2502.38	149
2502.75	101
2503.12	119
2503.49	153
2503.86	101
2504.23	121
2504.6	111
2504.97	151
2505.34	95
2505.7	175
2506.07	61
2506.44	171
2506.81	119
2507.18	119
2507.55	161
2507.92	107
2508.29	139
2508.66	111
2509.03	149
2509.4	109
2509.77	169
2510.14	67
2510.5	159
2510.88	125
2511.24	123
2511.61	137
2511.98	109
2512.35	121
2512.72	123
2513.09	127
2513.46	127
2513.83	139
2514.2	71
2514.56	147
2514.93	125
2515.3	123
2515.67	147
2516.04	109
2516.41	115
2516.78	149
2517.15	149
2517.51	131
2517.88	151
2518.25	75
2518.62	155
2518.99	111
2519.36	129
2519.73	113
2520.09	129
2520.46	125
2520.83	143
2521.2	117
2521.57	139
2521.94	127
2522.3	85
2522.67	143
2523.04	123
2523.41	117
2523.78	117
2524.15	83
2524.51	123
2524.88	147
2525.25	105
2525.62	129
2525.98	119
2526.35	127
2526.72	151
2527.09	153
2527.46	105
2527.83	157
2528.19	93
2528.56	135
2528.93	137
2529.3	103
2529.66	137
2530.03	123
2530.4	131
2530.77	113
2531.13	137
2531.5	117
2531.87	163
2532.24	85
2532.61	137
2532.97	133
2533.34	101
2533.71	139
2534.07	109
2534.44	127
2534.81	111
2535.18	143
2535.54	105
2535.91	153
2536.28	75
2536.65	133
2537.01	137
2537.38	123
2537.75	129
2538.11	117
2538.48	121
2538.85	111
2539.22	157
2539.58	99
2539.95	181
2540.32	79
2540.68	169
2541.05	131
2541.42	113
2541.78	143
2542.15	89
2542.52	127
2542.89	107
2543.25	147
2543.62	101
2543.99	167
2544.35	65
2544.72	155
2545.08	117
2545.45	125
2545.82	135
2546.19	97
2546.55	121
2546.92	113
2547.28	147
2547.65	93
2548.02	167
2548.38	81
2548.75	147
2549.12	127
2549.48	133
2549.85	129
2550.21	129
2550.58	113
2550.95	109
2551.31	143
2551.68	103
2552.05	177
2552.41	67
2552.78	153
2553.14	117
2553.51	135
2553.88	117
2554.24	109
2554.61	109
2554.97	121
2555.34	119
2555.71	105
2556.07	151
2556.44	51
2556.8	159
2557.17	119
2557.53	129
2557.9	121
2558.27	93
2558.63	119
2559	147
2559.36	129
2559.73	135
2560.09	147
2560.46	75
2560.82	151
2561.19	131
2561.55	113
2561.92	111
2562.29	107
2562.65	119
2563.02	141
2563.38	121
2563.75	127
2564.11	143
2564.48	95
2564.84	127
2565.21	129
2565.57	122.907
2565.94	114.803
2566.3	113.319
2566.67	131.27
2567.03	132.358
2567.4	107.785
2567.76	143.835
2568.13	126.497
2568.49	102.742
2568.86	129.743
2569.22	133.166
2569.59	108.628
2569.95	131.03
2570.32	101.539
2570.68	138.373
2571.05	139.581
2571.41	96.2708
2571.78	120.213
2572.14	124.475
2572.51	128.898
2572.87	123.988
2573.23	146.396
2573.6	97.3314
2573.96	148.574
2574.33	91.7478
2574.69	132.862
2575.06	131.06
2575.42	91.0621
2575.79	139.41
2576.15	122.382
2576.51	158.925
2576.88	147.869
2577.24	140.435
2577.61	92.5481
2577.97	153.832
2578.34	101.751
2578.7	131.203
2579.06	127.456
2579.43	107.964
2579.79	133.373
2580.16	108.742
2580.52	142.694
2580.88	115.083
2581.25	130.426
2581.61	103.462
2581.98	133.725
2582.34	99.6517
2582.7	134.872
2583.07	122.463
2583.43	109.5
2583.8	132.878
2584.16	123.523
2584.52	141.519
2584.89	117.167
2585.25	133.608
2585.61	136.086
2585.98	142.548
2586.34	102.704
2586.7	125.65
2587.07	129.428
2587.43	135.296
2587.8	132.135
2588.16	127.27
2588.52	141.248
2588.88	116.374
2589.25	132.79
2589.61	136.683
2589.97	126.978
2590.34	123.867
2590.7	119.36
2591.06	132.682
2591.43	125.785
2591.79	133.636
2592.15	95.1769
2592.52	143.863
2592.88	124.272
2593.24	111.036
2593.61	145.286
2593.97	105.59
2594.33	128.251
2594.7	111.071
2595.06	143.124
2595.42	125.54
2595.78	136.484
2596.15	89.1308
2596.51	152.921
2596.87	129.648
2597.24	110.258
2597.6	158.261
2597.96	117.219
2598.32	129.133
2598.69	135.014
2599.05	143.64
2599.41	140.609
2599.78	121.038
2600.14	101.493
2600.5	123.806
2600.86	140.3
2600.95	143
2601.31	119
2601.68	139
2602.05	101
2602.42	143
2602.78	153
2603.15	121
2603.52	153
2603.89	133
2604.25	103
2604.62	147
2604.99	149
2605.35	131
2605.72	129
2606.09	113
2606.46	143
2606.82	159
2607.19	143
2607.56	155
2607.92	119
2608.29	131
2608.66	161
2609.03	137
2609.39	119
2609.76	151
2610.13	101
2610.49	163
2610.86	153
2611.23	127
2611.59	135
2611.96	109
2612.33	133
2612.69	145
2613.06	159
2613.43	131
2613.79	139
2614.16	113
2614.53	161
2614.89	165
2615.26	113
2615.62	185
2615.99	87
2616.36	165
2616.72	129
2617.09	189
2617.46	123
2617.82	155
2618.19	137
2618.56	139
2618.92	175
2619.29	107
2619.65	181
2620.02	129
2620.39	163
2620.75	135
2621.12	153
2621.48	127
2621.85	177
2622.22	125
2622.58	167
2622.95	153
2623.31	107
2623.68	201
2624.04	123
2624.41	155
2624.78	139
2625.14	167
2625.51	129
2625.87	197
2626.24	113
2626.6	189
2626.97	167
2627.34	153
2627.7	207
2628.07	133
2628.43	207
2628.8	151
2629.16	201
2629.53	131
2629.9	213
2630.26	143
2630.63	189
2630.99	187
2631.36	153
2631.72	219
2632.09	147
2632.45	199
2632.82	147
2633.18	217
2633.55	169
2633.91	199
2634.28	149
2634.64	215
2635.01	181
2635.37	181
2635.74	215
2636.1	167
2636.47	211
2636.83	199
2637.2	253
2637.56	181
2637.93	227
2638.29	149
2638.66	249
2639.02	187
2639.39	219
2639.75	203
2640.12	177
2640.48	239
2640.84	197
2641.21	229
2641.57	213
2641.94	275
2642.3	195
2642.67	245
2643.03	213
2643.4	227
2643.76	247
2644.13	215
2644.49	243
2644.85	217
2645.22	251
2645.58	245
2645.95	263
2646.31	195
2646.68	283
2647.04	247
2647.4	267
2647.77	267
2648.13	265
2648.5	271
2648.86	309
2649.22	265
2649.59	285
2649.95	293
2650.32	245
2650.68	321
2651.04	283
2651.41	323
2651.77	291
2652.14	293
2652.5	305
2652.86	349
2653.23	305
2653.59	335
2653.95	333
2654.32	281
2654.68	327
2655.05	369
2655.41	345
2655.77	379
2656.14	345
2656.5	409
2656.86	407
2657.23	365
2657.59	381
2657.95	379
2658.32	409
2658.68	377
2659.04	461
2659.41	413
2659.77	443
2660.13	421
2660.5	431
2660.86	489
2661.22	437
2661.59	485
2661.95	495
2662.31	491
2662.68	489
2663.04	537
2663.4	461
2663.76	537
2664.13	499
2664.49	545
2664.85	551
2665.22	515
2665.58	605
2665.94	611
2666.3	601
2666.67	565
2667.03	593
2667.39	627
2667.76	675
2668.12	609
2668.48	667
2668.84	669
2669.21	635
2669.57	669
2669.93	681
2670.29	693
2670.66	719
2671.02	743
2671.38	749
2671.74	787
2672.11	769
2672.47	825
2672.83	815
2673.19	825
2673.56	791
2673.92	891
2674.28	843
2674.64	835
2675	943
2675.37	799
2675.73	905
2676.09	835
2676.45	935
2676.81	939
2677.18	925
2677.54	941
2677.9	977
2678.26	973
2678.62	1081
2678.99	1019
2679.35	981
2679.71	1037
2680.07	975
2680.43	1089
2680.8	1089
2681.16	1089
2681.52	1017
2681.88	1019
2682.24	1041
2682.6	1101
2682.97	1099
2683.33	1047
2683.69	1049
2684.05	963
2684.41	1117
2684.77	1023
2685.13	1083
2685.5	1033
2685.86	1093
2686.22	1039
2686.58	1175
2686.94	1103
2687.3	1051
2687.66	1039
2688.03	1037
2688.39	1075
2688.75	1017
2689.11	1065
2689.47	1013
2689.83	1009
2690.19	953
2690.55	1015
2690.91	977
2691.28	997
2691.64	993
2692	947
2692.36	939
2692.72	959
2693.08	879
2693.44	869
2693.8	907
2694.16	863
2694.52	849
2694.88	805
2695.24	845
2695.61	883
2695.97	771
2696.33	789
2696.69	807
2697.05	793
2697.41	783
2697.77	739
2698.13	747
2698.49	759
2698.85	685
2699.21	701
2699.57	709
2699.93	669
2700.29	585
2700.65	621
2701.01	599
2701.37	621
2701.73	577
2702.09	603
2702.45	557
2702.81	547
2703.18	547
2703.53	527
2703.89	503
2704.25	503
2704.62	481
2704.98	507
2705.33	579
2705.69	451
2706.06	489
2706.42	443
2706.78	435
2707.13	457
2707.49	469
2707.85	429
2708.22	431
2708.57	403
2708.93	415
2709.29	423
2709.65	349
2710.01	391
2710.37	401
2710.73	385
2711.09	313
2711.45	393
2711.81	329
2712.17	339
2712.53	341
2712.89	347
2713.25	357
2713.61	291
2713.97	347
2714.33	325
2714.69	321
2715.05	315
2715.41	335
2715.76	257
2716.12	275
2716.48	317
2716.84	279
2717.2	323
2717.56	215
2717.92	305
2718.28	247
2718.64	305
2719	269
2719.35	285
2719.71	235
2720.07	265
2720.43	265
2720.79	239
2721.15	267
2721.51	203
2721.87	259
2722.23	213
2722.59	261
2722.94	201
2723.3	269
2723.66	197
2724.02	237
2724.38	229
2724.74	213
2725.1	259
2725.46	173
2725.81	247
2726.17	207
2726.53	249
2726.89	177
2727.25	259
2727.61	179
2727.96	227
2728.32	215
2728.68	219
2729.04	233
2729.4	161
2729.75	233
2730.11	187
2730.47	213
2730.83	163
2731.19	211
2731.55	169
2731.91	207
2732.26	175
2732.62	205
2732.98	211
2733.34	161
2733.69	187
2734.05	205
2734.41	195
2734.77	135
2735.13	203
2735.48	151
2735.84	201
2736.2	135
2736.56	185
2736.91	187
2737.27	175
2737.63	157
2737.99	211
2738.35	179
2738.7	159
2739.06	195
2739.42	113
2739.78	197
2740.13	153
2740.49	159
2740.85	179
2741.21	147
2741.56	159
2741.92	171
2742.28	159
2742.64	157
2742.99	151
2743.35	153
2743.71	155
2744.06	151
2744.42	133
2744.78	155
2745.14	153
2745.49	143
2745.85	173
2746.21	135
2746.57	145
2746.92	119
2747.28	135
2747.64	133
2747.99	179
2748.35	151
2748.71	193
2749.06	115
2749.42	145
2749.78	159
2750.13	141
2750.49	189
2750.85	125
2751.2	135
2751.56	147
2751.92	155
2752.27	129
2752.63	191
2752.99	123
2753.34	159
2753.7	161
2754.06	145
2754.41	159
2754.77	123
2755.13	149
2755.48	133
2755.84	155
2756.2	103
2756.55	187
2756.91	101
2757.26	157
2757.62	139
2757.98	157
2758.33	165
2758.69	135
2759.04	147
2759.4	123
2759.76	169
2760.11	83
2760.47	191
2760.83	85
2761.18	159
2761.54	129
2761.89	143
2762.25	129
2762.61	111
2762.96	121
2763.32	139
2763.67	151
2764.03	93
2764.38	189
2764.74	99
2765.1	163
2765.45	123
2765.81	153
2766.16	143
2766.52	131
2766.88	141
2767.23	129
2767.59	123
2767.94	97
2768.3	179
2768.65	93
2769.01	169
2769.36	107
2769.72	147
2770.07	151
2770.43	125
2770.78	119
2771.14	137
2771.49	153
2771.85	113
2772.21	161
2772.56	81
2772.92	161
2773.27	107
2773.63	141
2773.98	143
2774.34	129
2774.69	111
2775.05	153
2775.4	143
2775.76	113
2776.11	169
2776.47	109
2776.82	139
2777.18	125
2777.53	133
2777.89	159
2778.24	125
2778.59	95
2778.95	151
2779.3	129
2779.66	131
2780.01	145
2780.37	105
2780.72	147
2781.08	117
2781.43	145
2781.79	139
2782.14	117
2782.49	109
2782.85	161
2783.2	119
2783.56	127
2783.91	141
2784.27	111
2784.62	137
2784.98	127
2785.33	137
2785.68	137
2786.04	101
2786.39	129
2786.75	145
2787.1	131
2787.46	127
2787.81	157
2788.16	121
2788.52	125
2788.87	135
2789.22	113
2789.58	161
2789.93	107
2790.29	115
2790.64	141
2790.99	125
2791.35	131
2791.7	117
2792.06	103
2792.41	131
2792.76	173
2793.12	105
2793.47	171
2793.82	99
2794.18	105
2794.53	135
2794.88	125
2795.24	131
2795.59	111
2795.95	119
2796.3	145
2796.65	155
2797.01	133
2797.36	165
2797.71	95
2798.07	119
2798.42	121
2798.77	147
2799.13	125
2799.48	139
2799.83	103
2800.19	127
2800.54	145
2800.89	97
2801.24	163
2801.6	81
2801.95	145
2802.3	107
2802.66	143
2803.01	125
2803.36	113
2803.72	113
2804.07	137
2804.42	153
2804.77	89
2805.13	163
2805.48	85
2805.83	147
2806.19	97
2806.54	153
2806.89	109
2807.24	147
2807.6	105
2807.95	147
2808.3	143
2808.65	91
2809.01	157
2809.36	81
2809.71	137
2810.06	107
2810.42	139
2810.77	121
2811.12	139
2811.47	93
2811.83	143
2812.18	131
2812.53	101
2812.88	165
2813.24	85
2813.59	149
2813.94	89
2814.29	155
2814.64	99
2815	149
2815.35	85
2815.7	145
2816.05	135
2816.4	107
2816.76	159
2817.11	83
2817.46	155
2817.81	101
2818.16	139
2818.52	113
2818.87	131
2819.22	91
2819.57	145
2819.92	135
2820.28	117
2820.63	145
2820.98	95
2821.33	135
2821.68	107
2822.03	135
2822.39	131
2822.74	143
2823.09	59
2823.44	145
2823.79	125
2824.14	127
2824.49	151
2824.85	115
2825.2	115
2825.55	125
2825.9	141
2826.25	129
2826.6	143
2826.95	83
2827.31	159
2827.66	127
2828.01	115
2828.36	123
2828.71	89
2829.06	115
2829.41	155
2829.76	143
2830.11	133
2830.46	111
2830.82	103
2831.17	143
2831.52	131
2831.87	105
2832.22	115
2832.57	81
2832.92	125
2833.27	137
2833.62	111
2833.97	143
2834.32	105
2834.68	111
2835.03	117
2835.38	129
2835.73	113
2836.08	137
2836.43	113
2836.78	133
2837.13	125
2837.48	93
2837.83	135
2838.18	115
2838.53	121
2838.88	133
2839.23	133
2839.58	119
2839.93	125
2840.28	91
2840.63	141
2840.98	127
2841.33	89
2841.68	143
2842.03	121
2842.38	123
2842.73	105
2843.08	141
2843.43	103
2843.78	155
2844.13	97
2844.48	119
2844.83	123
2845.18	109
2845.53	161
2845.88	105
2846.23	119
2846.58	111
2846.93	149
2847.28	85
2847.63	157
2847.98	75
2848.33	141
2848.68	137
2849.03	107
2849.38	153
2849.73	91
2850.08	129
2850.43	117
2850.78	137
2851.13	91
2851.48	153
2851.83	89
2852.18	151
2852.53	131
2852.88	125
2853.23	143
2853.57	123
2853.92	123
2854.27	125
2854.62	139
2854.97	81
2855.32	169
2855.67	83
2856.02	155
2856.37	111
2856.72	127
2857.07	123
2857.42	111
2857.76	121
2858.11	101
2858.46	139
2858.81	97
2859.16	173
2859.51	59
2859.86	169
2860.21	135
2860.56	129
2860.91	129
2861.25	99
2861.6	131
2861.95	101
2862.3	139
2862.65	107
2863	151
2863.35	65
2863.69	139
2864.04	113
2864.39	123
2864.74	129
2865.09	97
2865.44	117
2865.78	123
2866.13	131
2866.48	105
2866.83	163
2867.18	67
2867.53	175
2867.88	113
2868.22	135
2868.57	119
2868.92	113
2869.27	119
2869.62	133
2869.96	131
2870.31	109
2870.66	157
2871.01	53
2871.36	131
2871.7	107
2872.05	121
2872.4	117
2872.75	97
2873.1	99
2873.44	125
2873.79	133
2874.14	99
2874.49	137
2874.84	93
2875.18	139
2875.53	115
2875.88	129
2876.23	123
2876.57	119
2876.92	109
2877.27	133
2877.62	99
2877.97	125
2878.31	139
2878.66	81
2879.01	147
2879.36	127
2879.7	123
2880.05	101
2880.4	113
2880.74	121
2881.09	143
2881.44	109
2881.79	127
2882.13	123
2882.48	89
2882.83	131
2883.18	125
2883.52	105
2883.87	129
2884.22	107
2884.56	129
2884.91	153
2885.26	97
2885.61	107
2885.95	131
2886.3	135
2886.65	121
2886.99	145
2887.34	111
2887.69	153
2888.03	85
2888.38	121
2888.73	127
2889.07	95
2889.42	121
2889.77	127
2890.11	109
2890.46	101
2890.81	155
2891.15	99
2891.5	161
2891.85	79
2892.19	123
2892.54	123
2892.89	109
2893.23	93
2893.58	115
2893.93	119
2894.27	95
2894.62	133
2894.96	77
2895.31	163
2895.66	65
2896	153
2896.35	104.72
2896.7	124.496
2897.04	121.007
2897.39	121.118
2897.73	115.333
2898.08	129.647
2898.43	135.269
2898.77	94.8112
2899.12	164.079
2899.46	68.3992
2899.81	147.181
2900.16	104.888
2900.5	132.746
2900.85	105.54
2901.19	130.478
2901.54	127.078
2901.88	114.718
2902.23	144.812
2902.58	105.657
2902.92	145.605
2903.27	55.5079
2903.61	140.823
2903.96	113.726
2904.31	129.374
2904.65	117.582
2905	120.631
2905.34	104.473
2905.69	124.497
2906.03	124.375
2906.38	113.984
2906.72	153.149
2907.07	75.7332
2907.42	131.526
2907.76	120.736
2908.11	130.105
2908.45	115.666
2908.8	121.711
2909.14	110.97
2909.49	134.68
2909.83	114.651
2910.18	110.993
2910.52	120.997
2910.87	63.5835
2911.21	130.708
2911.56	114.225
2911.9	123.366
2912.25	110.414
2912.59	118.219
2912.94	96.9222
2913.28	136.479
2913.63	110.791
2913.97	111.85
2914.32	138.342
2914.66	85.6586
2915.01	135.488
2915.35	135.557
2915.7	120.213
2916.04	104.998
2916.39	126.227
2916.73	106.334
2917.08	141.311
2917.42	112.323
2917.77	112.71
2918.11	141.263
2918.46	113.249
2918.8	124.563
2919.15	119.388
2919.49	120.744
2919.83	116.173
2920.18	130.831
2920.52	116.547
2920.87	123.201
2921.21	113.569
2921.56	126.057
2921.9	135.452
2922.24	120.1
2922.59	122.508
2922.93	127.171
2923.28	127.021
2923.62	106.64
2923.97	114.043
2924.31	121.806
2924.65	134.567
2925	116.966
2925.34	87.3611
2925.69	127.938
2926.03	114.892
2926.38	122.436
2926.72	111.889
2927.06	119.727
2927.41	98.5697
2927.75	108.477
2928.09	124.969
2928.44	114.481
2928.78	142.222
2929.13	80.211
2929.47	140.351
2929.81	116.733
2930.16	128.626
2930.5	97.1963
2930.79	129
2931.14	97
2931.49	125
2931.84	131
2932.19	99
2932.54	155
2932.88	59
2933.23	159
2933.58	103
2933.93	137
2934.28	121
2934.63	127
2934.97	87
2935.32	159
2935.67	123
2936.02	111
2936.37	145
2936.71	85
2937.06	129
2937.41	129
2937.76	139
2938.11	97
2938.46	167
2938.8	95
2939.15	129
2939.5	107
2939.85	117
2940.19	133
2940.54	73
2940.89	141
2941.24	121
2941.59	133
2941.93	93
2942.28	123
2942.63	89
2942.98	143
2943.32	87
2943.67	103
2944.02	137
2944.37	77
2944.72	121
2945.06	137
2945.41	129
2945.76	113
2946.11	123
2946.45	101
2946.8	121
2947.15	95
2947.49	119
2947.84	129
2948.19	101
2948.54	117
2948.88	139
2949.23	111
2949.58	123
2949.93	109
2950.27	103
2950.62	135
2950.97	101
2951.31	117
2951.66	139
2952.01	97
2952.35	107
2952.7	135
2953.05	113
2953.4	129
2953.74	109
2954.09	119
2954.44	117
2954.78	127
2955.13	121
2955.48	145
2955.82	101
2956.17	129
2956.52	133
2956.86	123
2957.21	147
2957.56	91
2957.9	137
2958.25	123
2958.6	133
2958.94	105
2959.29	153
2959.64	91
2959.98	99
2960.33	141
2960.68	119
2961.02	141
2961.37	79
2961.72	117
2962.06	111
2962.41	131
2962.76	97
2963.1	139
2963.45	105
2963.79	117
2964.14	145
2964.49	99
2964.83	157
2965.18	89
2965.52	141
2965.87	113
2966.22	143
2966.56	95
2966.91	165
2967.25	73
2967.6	123
2967.95	125
2968.29	107
2968.64	123
2968.98	65
2969.33	123
2969.68	117
2970.02	143
2970.37	81
2970.71	161
2971.06	81
2971.4	143
2971.75	115
2972.1	101
2972.44	131
2972.79	69
2973.13	133
2973.48	97
2973.82	143
2974.17	73
2974.51	173
2974.86	75
2975.21	153
2975.55	123
2975.9	111
2976.24	133
2976.59	91
2976.93	125
2977.28	113
2977.62	137
2977.97	87
2978.31	145
2978.66	71
2979	131
2979.35	103
2979.69	111
2980.04	117
2980.38	111
2980.73	107
2981.07	119
2981.42	131
2981.76	95
2982.11	149
2982.45	73
2982.8	173
2983.14	91
2983.49	129
2983.83	117
2984.18	109
2984.52	127
2984.87	155
2985.21	143
2985.56	105
2985.9	157
2986.25	95
2986.59	145
2986.94	93
2987.28	127
2987.62	125
2987.97	105
2988.31	111
2988.66	121
2989	125
2989.35	115
2989.69	129
2990.03	87
2990.38	145
2990.72	105
2991.07	119
2991.41	145
2991.76	99
2992.1	105
2992.44	127
2992.79	117
2993.13	129
2993.48	121
2993.82	105
2994.17	135
2994.51	101
2994.85	123
2995.2	141
2995.54	113
2995.89	97
2996.23	137
2996.57	141
2996.92	137
2997.26	113
2997.6	101
2997.95	117
2998.29	133
2998.64	109
2998.98	147
2999.32	65
2999.67	91
