#Acq. time (s)=	30
#Accumulations=	1
#Range (cm-¹)=	1050...3000 (30 s) 
#Windows=	6
#Auto scanning=	Off
#Autofocus=	Off
#AutoExposure=	Off
#Spike filter=	Off
#Delay time (s)=	0
#Binning=	1
#Readout mode=	Signal
#DeNoise=	Off
#ICS correction=	Off
#Dark correction=	Off
#Inst. Process=	Off
#Detector Gain=	High Sensitivity
#Detector ADC=	45 kHz       
#Detector temperature (°C)=	-60.1
#Instrument=	LabRAM
#Detector=	Syncerity
#Objective=	x50LWD
#Grating=	1800
#Filter=	25%
#Laser (nm)=	532
#Hole=	100
#E-Cal_Neon=	0
#StageXY=	Marzhauser
#StageZ=	Marzhauser
#X (µm)=	0
#Y (µm)=	0
#Z (µm)=	-1678.85
#Spectral res.(cm-¹)=	1.9
#Full time(mm:ss)=	3:09
#AC=	Not calibrated
#Project=	
#Sample=	
#Site=	
#Title=	Spot 2 500K REVERSE
#Remark=	
#Date=	19.02.2026 15:31
#Acquired=	19.02.2026 15:31:18
#Edit:Spike=	19.02.2026 15:40:14
#Edit:Spike=	19.02.2026 15:40:22
#Edit:Spike=	19.02.2026 15:40:23
#AxisType[0]=Intens
#AxisUnit[0]=Cnt
#AxisType[1]=Spectr
#AxisUnit[1]=1/cm
1050.13	119
1050.59	101
1051.05	127
1051.51	107
1051.97	117
1052.44	133
1052.9	101
1053.36	109
1053.82	115
1054.28	103
1054.74	129
1055.2	105
1055.67	115
1056.13	135
1056.59	97
1057.05	119
1057.51	149
1057.97	115
1058.43	105
1058.89	131
1059.36	103
1059.82	135
1060.28	93
1060.74	101
1061.2	139
1061.66	103
1062.12	117
1062.58	155
1063.04	107
1063.5	121
1063.96	113
1064.43	119
1064.89	155
1065.35	117
1065.81	113
1066.27	117
1066.73	119
1067.19	107
1067.65	131
1068.11	107
1068.57	109
1069.03	137
1069.49	93
1069.95	155
1070.41	91
1070.87	139
1071.33	133
1071.79	161
1072.25	125
1072.71	141
1073.17	91
1073.63	105
1074.09	139
1074.55	103
1075.01	157
1075.47	73
1075.93	139
1076.39	119
1076.85	143
1077.31	91
1077.77	145
1078.23	83
1078.69	99
1079.15	139
1079.61	111
1080.07	149
1080.53	81
1080.99	117
1081.45	109
1081.91	137
1082.37	108.5
1082.83	112.1
1083.29	71
1083.75	135
1084.21	119
1084.66	113
1085.12	141
1085.58	45
1086.04	147
1086.5	91
1086.96	139
1087.42	97
1087.88	131
1088.34	87
1088.8	131
1089.25	131
1089.71	107
1090.17	145
1090.63	53
1091.09	159
1091.55	123
1092.01	145
1092.47	89
1092.92	133
1093.38	85
1093.84	127
1094.3	111
1094.76	111
1095.22	163
1095.68	71
1096.13	139
1096.59	115
1097.05	129
1097.51	105
1097.97	139
1098.43	85
1098.88	157
1099.34	107
1099.8	121
1100.26	149
1100.72	73
1101.17	145
1101.63	113
1102.09	151
1102.55	85
1103.01	129
1103.46	89
1103.92	155
1104.38	97
1104.84	115
1105.29	125
1105.75	67
1106.21	147
1106.67	109
1107.12	125
1107.58	131
1108.04	117
1108.5	107
1108.95	135
1109.41	103
1109.87	107
1110.33	131
1110.78	101
1111.24	125
1111.7	151
1112.16	121
1112.61	103
1113.07	121
1113.53	103
1113.98	139
1114.44	93
1114.9	119
1115.35	137
1115.81	123
1116.27	121
1116.72	111
1117.18	115
1117.64	117
1118.1	107
1118.55	97
1119.01	131
1119.47	91
1119.92	97
1120.38	139
1120.84	87
1121.29	121
1121.75	119
1122.2	117
1122.66	133
1123.12	99
1123.57	117
1124.03	137
1124.49	111
1124.94	129
1125.4	139
1125.86	107
1126.31	109
1126.77	147
1127.22	93
1127.68	163
1128.14	95
1128.59	131
1129.05	115
1129.5	117
1129.96	117
1130.41	127
1130.87	105
1131.33	99
1131.78	145
1132.24	99
1132.69	167
1133.15	71
1133.61	149
1134.06	121
1134.52	117
1134.97	131
1135.43	109
1135.88	101
1136.34	121
1136.79	135
1137.25	101
1137.7	149
1138.16	73
1138.61	147
1139.07	103
1139.52	127
1139.98	119
1140.43	111
1140.89	115
1141.34	101
1141.8	145
1142.25	95
1142.71	173
1143.16	67
1143.62	147
1144.07	93
1144.53	123
1144.98	123
1145.44	127
1145.89	123
1146.35	95
1146.8	145
1147.26	89
1147.71	171
1148.16	59
1148.62	143
1149.07	115
1149.53	145
1149.98	127
1150.44	109
1150.89	111
1151.35	133
1151.8	151
1152.25	85
1152.71	159
1153.16	59
1153.62	157
1154.07	133
1154.52	151
1154.98	113
1155.43	121
1155.89	87
1156.34	125
1156.79	131
1157.25	83
1157.7	149
1158.16	37
1158.61	157
1159.06	97
1159.52	151
1159.97	107
1160.42	125
1160.88	97
1161.33	119
1161.78	125
1162.24	123
1162.69	159
1163.14	61
1163.6	151
1164.05	123
1164.5	145
1164.96	107
1165.41	103
1165.86	113
1166.32	131
1166.77	125
1167.22	109
1167.68	157
1168.13	77
1168.58	157
1169.04	123
1169.49	117
1169.94	103
1170.39	113
1170.85	117
1171.3	121
1171.75	115
1172.2	133
1172.66	147
1173.11	79
1173.56	141
1174.01	113
1174.47	135
1174.92	117
1175.37	115
1175.82	95
1176.28	141
1176.73	107
1177.18	131
1177.63	131
1178.09	107
1178.54	143.52
1178.99	177.5
1179.44	171.1
1179.89	151
1180.35	99
1180.8	123
1181.25	135
1181.7	99
1182.15	95
1182.61	121
1183.06	97
1183.51	119
1183.96	139
1184.41	89
1184.87	143
1185.32	81
1185.77	107
1186.22	135
1186.67	93
1187.12	127
1187.58	109
1188.03	121
1188.48	131
1188.93	135
1189.38	111
1189.83	147
1190.28	107
1190.73	131
1191.19	127
1191.64	85
1192.09	129
1192.54	125
1192.99	115
1193.44	103
1193.89	147
1194.34	79
1194.8	139
1195.25	75
1195.7	135
1196.15	131
1196.6	123
1197.05	117
1197.5	115
1197.95	101
1198.4	107
1198.85	147
1199.3	77
1199.75	159
1200.2	49
1200.66	145
1201.11	125
1201.56	137
1202.01	129
1202.46	123
1202.91	129
1203.36	85
1203.81	137
1204.26	95
1204.71	171
1205.16	65
1205.61	155
1206.06	125
1206.51	111
1206.96	135
1207.41	103
1207.86	117
1208.31	97
1208.76	131
1209.21	77
1209.66	161
1210.11	59
1210.56	149
1211.01	115
1211.46	113
1211.91	107
1212.36	111
1212.81	139
1213.26	99
1213.71	169
1214.16	91
1214.61	171
1215.05	55
1215.51	159
1215.95	113
1216.4	145
1216.85	145
1217.3	115
1217.75	115
1218.2	101
1218.65	155
1219.1	89
1219.55	171
1220	53
1220.45	147
1220.9	125
1221.34	129
1221.79	129
1222.24	93
1222.69	111
1223.14	105
1223.59	129
1224.04	87
1224.49	133
1224.94	75
1225.38	157
1225.83	97
1226.28	133
1226.73	115
1227.18	133
1227.63	111
1228.07	129
1228.52	131
1228.97	95
1229.42	141
1229.87	67
1230.32	151
1230.76	99
1231.21	141
1231.66	141
1232.11	113
1232.56	131
1233.01	127
1233.45	139
1233.9	101
1234.35	135
1234.8	55
1235.25	135
1235.69	127
1236.14	135
1236.59	133
1237.04	99
1237.49	111
1237.93	125
1238.38	137
1238.83	111
1239.28	117
1239.72	79
1240.17	137
1240.62	119
1241.07	129
1241.51	117
1241.96	107
1242.41	129
1242.86	147
1243.3	127
1243.75	133
1244.2	141
1244.65	109
1245.09	139
1245.54	121
1245.99	123
1246.44	117
1246.88	111
1247.33	107
1247.78	137
1248.22	115
1248.67	137
1249.12	99
1249.56	99
1250.01	135
1250.46	119
1250.9	99
1251.35	135
1251.8	99
1252.24	117
1252.69	133
1253.14	79
1253.58	129
1254.03	95
1254.48	123
1254.92	109
1255.37	147
1255.82	103
1256.26	139
1256.71	105
1257.15	131
1257.6	147
1258.05	83
1258.49	145
1258.94	121
1259.39	135
1259.83	107
1260.28	141
1260.72	97
1261.17	167
1261.62	83
1262.06	129
1262.51	111
1262.95	81
1263.4	145
1263.85	85
1264.29	133
1264.74	99
1265.18	143
1265.63	81
1266.07	163
1266.52	87
1266.97	149
1267.41	137
1267.86	109
1268.3	143
1268.75	93
1269.19	131
1269.64	89
1270.08	145
1270.53	71
1270.97	165
1271.42	69
1271.86	145
1272.31	103
1272.76	113
1273.2	143
1273.64	87
1274.09	137
1274.53	85
1274.98	151
1275.42	87
1275.87	171
1276.31	57
1276.76	147
1277.2	117
1277.65	111
1278.09	123
1278.54	73
1278.98	125
1279.43	119
1279.87	129
1280.32	97
1280.76	149
1281.21	73
1281.65	157
1282.09	117
1282.54	135
1282.98	121
1283.43	107
1283.87	123
1284.32	119
1284.76	145
1285.21	111
1285.65	137
1286.09	65
1286.54	165
1286.98	119
1287.42	151
1287.87	123
1288.31	103
1288.76	141
1289.2	121
1289.64	133
1290.09	107
1290.53	123
1290.98	79
1291.42	129
1291.86	129
1292.31	135
1292.75	143
1293.19	113
1293.64	133
1294.08	149
1294.53	121
1294.97	109
1295.41	121
1295.85	91
1296.3	131
1296.74	129
1297.19	103
1297.63	127
1298.07	115
1298.51	129
1298.96	139
1299.4	109
1299.84	129
1300.29	103
1300.73	123
1301.17	141
1301.62	121
1302.06	123
1302.5	115
1302.94	99
1303.39	113
1303.83	127
1304.27	95
1304.72	135
1305.16	107
1305.6	101
1306.04	131
1306.49	115
1306.93	93
1307.37	135
1307.81	89
1308.26	139
1308.7	141
1309.14	103
1309.58	169
1310.03	105
1310.47	135
1310.91	123
1311.35	137
1311.8	97
1312.24	125
1312.68	97
1313.12	129
1313.56	133
1314	89
1314.45	157
1314.89	93
1315.33	125
1315.77	113
1316.22	133
1316.66	83
1317.1	147
1317.54	101
1317.98	147
1318.43	147
1318.87	79
1319.31	151
1319.75	91
1320.19	133
1320.63	89
1321.07	135
1321.51	93
1321.96	141
1322.4	107
1322.84	153
1323.28	123
1323.72	97
1324.16	151
1324.6	95
1325.05	171
1325.49	97
1325.93	149
1326.37	109
1326.81	171
1327.25	81
1327.69	133
1328.13	133
1328.57	85
1329.02	163
1329.45	75
1329.9	153
1330.34	107
1330.78	151
1331.22	123
1331.66	145
1332.1	97
1332.54	131
1332.98	133
1333.42	91
1333.86	175
1334.3	103
1334.74	153
1335.18	97
1335.62	133
1336.07	109
1336.5	149
1336.95	81
1337.39	159
1337.83	113
1338.27	117
1338.71	141
1339.15	87
1339.59	153
1340.03	85
1340.47	115
1340.91	121
1341.35	135
1341.79	79
1342.23	157
1342.67	117
1343.11	109
1343.55	153
1343.99	93
1344.43	149
1344.86	101
1345.31	145
1345.74	137
1346.18	149
1346.62	81
1347.06	141
1347.5	117
1347.94	125
1348.38	143
1348.82	81
1349.26	125
1349.7	123
1350.14	131
1350.58	141
1351.02	115
1351.46	75
1351.9	149
1352.33	117
1352.77	103
1353.21	111
1353.65	103
1354.09	151
1354.53	131
1354.97	133
1355.41	129
1355.85	115
1356.29	95
1356.72	133
1357.16	125
1357.6	119
1358.04	131
1358.48	107
1358.92	147
1359.36	149
1359.79	99
1360.23	141
1360.67	97
1361.11	99
1361.55	135
1361.99	119
1362.43	121
1362.87	117
1363.3	101
1363.74	119
1364.18	137
1364.62	83
1365.06	151
1365.49	83
1365.93	131
1366.37	121
1366.81	125
1367.25	109
1367.68	135
1368.12	107
1368.56	137
1369	129
1369.44	89
1369.87	155
1370.31	97
1370.75	147
1371.19	131
1371.62	135
1372.06	99
1372.5	119
1372.94	111
1373.37	125
1373.81	141
1374.25	87
1374.69	163
1375.12	69
1375.56	145
1376	115
1376.44	141
1376.87	89
1377.31	119
1377.75	97
1378.19	135
1378.62	127
1379.06	93
1379.5	153
1379.93	63
1380.37	157
1380.81	87
1381.25	145
1381.68	99
1382.12	123
1382.56	103
1382.99	131
1383.43	127
1383.87	83
1384.3	181
1384.74	73
1385.18	135
1385.61	105
1386.05	151
1386.49	113
1386.92	125
1387.36	87
1387.8	129
1388.23	127
1388.67	93
1389.1	163
1389.54	51
1389.98	137
1390.41	99
1390.85	147
1391.29	99
1391.72	125
1392.16	81
1392.59	127
1393.03	107
1393.47	101
1393.9	155
1394.34	77
1394.77	165
1395.21	85
1395.65	143
1396.08	125
1396.52	121
1396.95	71
1397.39	149
1397.82	129
1398.26	115
1398.7	151
1399.13	81
1399.57	145
1400	85
1400.44	125
1400.87	125
1401.31	119
1401.74	89
1402.18	153
1402.62	129
1403.05	107
1403.49	159
1403.92	97
1404.36	133
1404.79	113
1405.23	117
1405.66	119
1406.1	99
1406.53	93
1406.97	129
1407.4	109
1407.84	127
1408.27	141
1408.71	105
1409.14	139
1409.58	125
1410.01	107
1410.45	113
1410.88	103
1411.31	87
1411.75	129
1412.18	119
1412.62	123
1413.05	115
1413.49	95
1413.92	145
1414.36	121
1414.79	117
1415.23	119
1415.66	101
1416.1	95
1416.53	141
1416.96	121
1417.4	105
1417.83	111
1418.27	115
1418.7	111
1419.13	135
1419.57	97
1420	135
1420.44	85
1420.87	105
1421.3	139
1421.74	145
1422.17	143
1422.61	105
1423.04	127
1423.47	123
1423.91	131
1424.34	97
1424.77	145
1425.21	79
1425.64	97
1426.07	147
1426.51	109
1426.94	123
1427.38	97
1427.81	91
1428.24	117
1428.68	141
1429.11	101
1429.54	145
1429.98	69
1430.41	109
1430.84	123
1431.28	121
1431.71	137
1432.14	87
1432.57	111
1433.01	117
1433.44	145
1433.87	95
1434.31	169
1434.74	79
1435.17	127
1435.61	111
1436.04	113
1436.47	131
1436.9	73
1437.34	121
1437.77	123
1438.2	143
1438.63	73
1439.07	153
1439.5	73
1439.93	157
1440.36	115
1440.8	125
1441.23	127
1441.66	95
1442.09	119
1442.53	105
1442.96	143
1443.39	73
1443.82	153
1444.26	75
1444.69	157
1445.12	109
1445.55	151
1445.98	95
1446.42	103
1446.85	107
1447.28	125
1447.71	133
1448.14	79
1448.57	163
1449.01	59
1449.44	155
1449.87	85
1450.3	111
1450.73	117
1451.17	109
1451.6	103
1452.03	133
1452.46	121
1452.89	77
1453.32	165
1453.76	75
1454.19	147
1454.62	97
1455.05	117
1455.48	131
1455.91	107
1456.34	105
1456.77	139
1457.21	123
1457.64	97
1458.07	139
1458.5	77.2549
1458.93	136.661
1459.36	81.709
1459.79	124.712
1460.22	121.682
1460.65	106.826
1461.08	91.15
1461.52	148.305
1461.95	108.639
1462.38	101
1462.81	141.005
1463.24	85.9873
1463.67	142.077
1464.1	84.0783
1464.53	134.183
1464.96	125.026
1465.39	100.385
1465.82	106.774
1466.25	144.603
1466.68	119
1467.11	114.688
1467.54	124.919
1467.98	94.3685
1468.41	126.5
1468.84	102.924
1469.27	118.819
1469.7	117.114
1470.13	102.853
1470.56	108.838
1470.99	134.788
1471.42	116.467
1471.85	123.022
1472.28	112.321
1472.71	106.075
1473.14	115.637
1473.57	114.297
1474	117.905
1474.43	202.88
1474.86	146.044
1475.29	145.034
1475.72	149.095
1476.15	109.246
1476.58	127.817
1477.01	105.735
1477.44	117.2
1477.87	125.534
1478.3	113.962
1478.72	124.347
1479.15	128.486
1479.58	101.815
1480.01	104.645
1480.44	134.524
1480.87	109.058
1481.3	135.882
1481.73	96.2631
1482.16	136.927
1482.59	112.724
1483.02	111.072
1483.45	120.316
1483.88	115.008
1484.31	98.9461
1484.74	106.316
1485.17	118.247
1485.59	108.457
1486.02	146.658
1486.45	89.9025
1486.88	117.622
1487.31	122.132
1487.74	126.605
1488.17	113.488
1488.6	124.527
1489.02	110.021
1489.45	119.849
1489.88	125.384
1490.31	116.901
1490.74	142.172
1491.17	87.3797
1491.6	128.765
1492.03	119.891
1492.45	123.312
1492.88	119.359
1493.31	122.632
1493.74	108.738
1494.17	111.264
1494.6	122.984
1495.02	109.104
1495.45	127.792
1495.88	96.5247
1496.31	114.188
1496.74	110.725
1497.17	102.787
1497.59	127.149
1498.02	115.555
1498.45	100.527
1498.88	116.793
1499.31	118.271
1499.73	121.51
1500.16	127.742
1500.59	118.948
1501.02	106.667
1501.45	141.996
1501.87	117.078
1502.13	97
1502.56	145
1502.99	87
1503.43	143
1503.86	105
1504.29	147
1504.72	101
1505.16	165
1505.59	75
1506.02	153
1506.46	113
1506.89	133
1507.32	149
1507.75	99
1508.19	113
1508.62	93
1509.05	123
1509.49	81
1509.92	155
1510.35	65
1510.78	169
1511.21	103
1511.65	125
1512.08	129
1512.51	103
1512.94	111
1513.38	97
1513.81	131
1514.24	87
1514.67	147
1515.11	57
1515.54	161
1515.97	113
1516.4	113
1516.83	127
1517.27	107
1517.7	121
1518.13	107
1518.56	121
1518.99	109
1519.42	143
1519.86	73
1520.29	157
1520.72	105
1521.15	113
1521.58	111
1522.01	101
1522.45	113
1522.88	117
1523.31	117
1523.74	109
1524.17	127
1524.6	69
1525.04	147
1525.47	103
1525.9	129
1526.33	129
1526.76	111
1527.19	123
1527.62	141
1528.05	105
1528.49	113
1528.92	145
1529.35	101
1529.78	149
1530.21	121
1530.64	113
1531.07	137
1531.5	103
1531.93	145
1532.37	115
1532.8	103
1533.23	127
1533.66	117
1534.09	97
1534.52	121
1534.95	131
1535.38	107
1535.81	125
1536.24	87
1536.67	119
1537.1	139
1537.53	93
1537.96	141
1538.39	109
1538.82	139
1539.26	131
1539.68	141
1540.12	115
1540.55	131
1540.98	87
1541.41	135
1541.84	133
1542.27	89
1542.7	133
1543.13	99
1543.56	125
1543.99	121
1544.42	127
1544.85	89
1545.28	141
1545.71	91
1546.14	125
1546.57	139
1547	105
1547.43	141
1547.86	103
1548.29	131
1548.72	111
1549.14	137
1549.57	65
1550.01	151
1550.43	79
1550.86	133
1551.29	129
1551.72	87
1552.15	147
1552.58	105
1553.01	159
1553.44	105
1553.87	163
1554.3	97
1554.73	167
1555.16	89
1555.59	143
1556.01	117
1556.44	87
1556.87	145
1557.3	113
1557.73	139
1558.16	91
1558.59	137
1559.02	99
1559.45	161
1559.88	69
1560.3	159
1560.73	107
1561.16	125
1561.59	147
1562.02	103
1562.45	143
1562.88	113
1563.31	137
1563.73	113
1564.16	179
1564.59	73
1565.02	139
1565.45	143
1565.88	153
1566.3	155
1566.73	101
1567.16	137
1567.59	107
1568.02	145
1568.45	109
1568.88	175
1569.3	83
1569.73	175
1570.16	125
1570.59	131
1571.01	157
1571.44	99
1571.87	137
1572.3	119
1572.73	163
1573.15	117
1573.58	169
1574.01	83
1574.44	167
1574.87	143
1575.29	145
1575.72	153
1576.15	127
1576.58	133
1577	139
1577.43	165
1577.86	117
1578.29	173
1578.71	79
1579.14	179
1579.57	147
1580	159
1580.42	159
1580.85	125
1581.28	165
1581.71	159
1582.13	167
1582.56	151
1582.99	203
1583.41	151
1583.84	199
1584.27	165
1584.7	167
1585.12	205
1585.55	145
1585.98	191
1586.4	177
1586.83	193
1587.26	199
1587.68	213
1588.11	183
1588.54	241
1588.96	207
1589.39	223
1589.82	217
1590.24	189
1590.67	201
1591.1	197
1591.52	183
1591.95	191
1592.38	211
1592.8	129
1593.23	217
1593.65	173
1594.08	173
1594.51	171
1594.93	135
1595.36	161
1595.79	159
1596.21	159
1596.64	149
1597.06	147
1597.49	123
1597.92	155
1598.34	141
1598.77	129
1599.19	133
1599.62	145
1600.05	139
1600.47	159
1600.9	127
1601.32	171
1601.75	117
1602.18	119
1602.6	149
1603.03	141
1603.45	121
1603.88	151
1604.3	131
1604.73	145
1605.15	149
1605.58	95
1606	137
1606.43	105
1606.86	123
1607.28	129
1607.71	157
1608.13	121
1608.56	127
1608.98	101
1609.41	129
1609.83	143
1610.26	99
1610.68	151
1611.11	121
1611.53	127
1611.96	111
1612.38	139
1612.81	89
1613.23	159
1613.66	113
1614.08	129
1614.51	113
1614.93	107
1615.36	143
1615.78	99
1616.21	145
1616.63	113
1617.06	163
1617.48	95
1617.9	159
1618.33	81
1618.75	157
1619.18	135
1619.6	101
1620.03	157
1620.45	97
1620.88	131
1621.3	95
1621.72	135
1622.15	89
1622.57	161
1623	81
1623.42	137
1623.85	109
1624.27	105
1624.69	133
1625.12	103
1625.54	129
1625.97	89
1626.39	149
1626.81	101
1627.24	167
1627.66	67
1628.08	149
1628.51	111
1628.93	117
1629.36	147
1629.78	101
1630.2	117
1630.63	103
1631.05	157
1631.47	91
1631.9	157
1632.32	57
1632.74	155
1633.17	115
1633.59	137
1634.01	151
1634.44	105
1634.86	105
1635.28	103
1635.71	143
1636.13	101
1636.55	169
1636.98	71
1637.4	163
1637.82	117
1638.25	131
1638.67	127
1639.09	107
1639.51	133
1639.94	139
1640.36	113
1640.78	95
1641.21	127
1641.63	77
1642.05	153
1642.47	119
1642.9	127
1643.32	125
1643.74	89
1644.17	115
1644.59	129
1645.01	131
1645.43	129
1645.86	119
1646.28	75
1646.7	145
1647.12	109
1647.55	121
1647.97	121
1648.39	93
1648.81	135
1649.23	127
1649.66	111
1650.08	119
1650.5	111
1650.92	83
1651.35	151
1651.77	137
1652.19	101
1652.61	137
1653.03	107
1653.45	127
1653.88	129
1654.3	97
1654.72	145
1655.14	109
1655.56	117
1655.99	143
1656.41	127
1656.83	109
1657.25	145
1657.67	91
1658.09	125
1658.52	127
1658.94	107
1659.36	117
1659.78	125
1660.2	135
1660.62	119
1661.04	153
1661.47	91
1661.89	121
1662.31	91
1662.73	125
1663.15	135
1663.57	111
1663.99	143
1664.41	103
1664.83	129
1665.26	105
1665.68	159
1666.1	87
1666.52	165
1666.94	87
1667.36	145
1667.78	135
1668.2	95
1668.62	151
1669.04	101
1669.46	131
1669.89	87
1670.31	143
1670.73	97
1671.15	155
1671.57	87
1671.99	121
1672.41	139
1672.83	105
1673.25	153
1673.67	95
1674.09	121
1674.51	121
1674.93	135
1675.35	95
1675.77	159
1676.19	73
1676.61	155
1677.03	131
1677.45	91
1677.87	137
1678.29	93
1678.71	131
1679.13	77
1679.55	139
1679.97	89
1680.39	165
1680.81	81
1681.23	151
1681.65	109
1682.07	101
1682.49	147
1682.91	91
1683.33	125
1683.75	87
1684.17	151
1684.59	97
1685.01	153
1685.43	67
1685.85	147
1686.27	111
1686.69	121
1687.11	159
1687.53	81
1687.95	117
1688.37	83
1688.78	143
1689.2	101
1689.62	147
1690.04	69
1690.46	153
1690.88	123
1691.3	123
1691.72	127
1692.14	97
1692.56	129
1692.98	115
1693.39	139
1693.81	89
1694.23	165
1694.65	59
1695.07	145
1695.49	89
1695.91	123
1696.33	121
1696.75	87
1697.16	123
1697.58	97
1698	145
1698.42	93
1698.84	145
1699.26	59
1699.68	151
1700.09	117
1700.51	107
1700.93	135
1701.35	81
1701.77	111
1702.19	101
1702.6	149
1703.02	105
1703.44	115
1703.86	63
1704.28	133
1704.69	131
1705.11	101
1705.53	127
1705.95	91
1706.37	127
1706.78	133
1707.2	109
1707.62	119
1708.04	135
1708.46	101
1708.87	145
1709.29	111
1709.71	131
1710.13	113
1710.54	79
1710.96	119
1711.38	139
1711.8	103
1712.22	121
1712.63	107
1713.05	107
1713.47	137
1713.89	139
1714.3	135
1714.72	137
1715.14	81
1715.56	131
1715.97	137
1716.39	109
1716.81	129
1717.22	109
1717.64	127
1718.06	119
1718.48	133
1718.89	97
1719.31	115
1719.73	79
1720.14	127
1720.56	117
1720.98	95
1721.39	151
1721.81	97
1722.23	115
1722.64	121
1723.06	135
1723.48	91
1723.89	141
1724.31	79
1724.73	135
1725.14	131
1725.56	95
1725.98	149
1726.39	103
1726.81	107
1727.23	103
1727.64	139
1728.06	87
1728.48	159
1728.89	73
1729.31	145
1729.72	131
1730.14	105
1730.56	149
1730.97	95
1731.39	129
1731.8	89
1732.22	155
1732.64	105
1733.05	163
1733.47	57
1733.89	139
1734.3	127
1734.72	85
1735.13	141
1735.55	95
1735.96	123
1736.38	89
1736.8	129
1737.21	95
1737.63	163
1738.04	67
1738.46	131
1738.87	125
1739.29	103
1739.71	149
1740.12	89
1740.54	123
1740.95	93
1741.37	139
1741.78	95
1742.2	179
1742.61	57
1743.03	149
1743.44	113
1743.86	131
1744.27	129
1744.69	101
1745.1	121
1745.52	99
1745.93	145
1746.35	79
1746.77	149
1747.18	49
1747.59	141
1748.01	125
1748.42	107.5
1748.84	122.7
1749.25	115
1749.67	125
1750.08	97
1750.5	125
1750.91	89
1751.33	141
1751.74	75
1752.16	155
1752.57	109
1752.99	119
1753.4	141
1753.81	101
1754.23	129
1754.64	115
1755.06	129
1755.47	87
1755.89	141
1756.3	59
1756.72	155
1757.13	117
1757.54	113
1757.96	125
1758.37	101
1758.78	113
1759.2	121
1759.61	111
1760.03	103
1760.44	143
1760.86	73
1761.27	155
1761.68	99
1762.1	127
1762.51	97
1762.92	89
1763.34	113
1763.75	113
1764.17	131
1764.58	93
1764.99	121
1765.41	79
1765.82	131
1766.23	117
1766.65	115
1767.06	123
1767.47	87
1767.89	121
1768.3	125
1768.71	103
1769.13	111
1769.54	103
1769.95	85
1770.37	131
1770.78	115
1771.19	123
1771.61	119
1772.02	95
1772.43	115
1772.85	131
1773.26	97
1773.67	127
1774.09	103
1774.5	93
1774.91	129
1775.32	117
1775.74	119
1776.15	127
1776.56	95
1776.97	113
1777.39	139
1777.8	99
1778.21	141
1778.62	101
1779.04	101
1779.45	127
1779.86	121
1780.28	109
1780.69	127
1781.1	87
1781.51	133
1781.92	113
1782.34	83
1782.75	135
1783.16	107
1783.57	103
1783.99	107
1784.4	125
1784.81	77
1785.22	135
1785.63	91
1786.05	137
1786.46	145
1786.87	87
1787.28	135
1787.69	105
1788.11	159
1788.52	115
1788.93	133
1789.34	95
1789.75	145
1790.17	101
1790.58	121
1790.99	127
1791.4	89
1791.81	133
1792.22	89
1792.63	129
1793.05	101
1793.46	117
1793.87	81
1794.28	157
1794.69	89
1795.1	149
1795.52	113
1795.93	101
1796.34	143
1796.75	99
1797.16	131
1797.57	85
1797.98	145
1798.39	83
1798.81	155
1799.22	65
1799.63	143
1800.04	111
1800.45	83
1800.86	143
1801.27	85
1801.68	113
1802.09	85
1802.5	133
1802.91	93
1803.32	157
1803.73	69
1804.15	131
1804.56	95
1804.97	107
1805.38	139
1805.79	111
1806.2	117
1806.61	81
1807.02	133
1807.43	107
1807.84	151
1808.25	43
1808.66	155
1809.07	101
1809.48	141
1809.89	143
1810.3	95
1810.71	109
1811.12	81
1811.53	133
1811.94	81
1812.35	163
1812.76	43
1813.17	165
1813.58	111
1813.99	117
1814.4	137
1814.81	91
1815.22	121
1815.63	105
1816.04	121
1816.45	107
1816.86	137
1817.27	57
1817.68	141
1818.09	121
1818.5	129
1818.91	109
1819.32	95
1819.73	107
1820.14	131
1820.55	123
1820.96	105
1821.37	123
1821.78	85
1822.19	147
1822.6	97
1823.01	119
1823.42	113
1823.82	107
1824.23	119
1824.64	149
1825.05	111
1825.46	103
1825.87	115
1826.28	69
1826.69	139
1827.1	95
1827.51	99
1827.91	105
1828.32	95
1828.73	113
1829.14	129
1829.55	105
1829.96	119
1830.37	101
1830.78	99
1831.18	135
1831.59	111
1832	113
1832.41	117
1832.82	89
1833.23	119
1833.64	133
1834.05	91
1834.45	127
1834.86	93
1835.27	107
1835.68	135
1836.09	113
1836.49	99
1836.9	123
1837.31	111
1837.72	111
1838.13	133
1838.53	87
1838.94	127
1839.35	93
1839.76	91
1840.17	105
1840.58	127
1840.98	95
1841.39	125
1841.8	83
1842.21	127
1842.61	143
1843.02	95
1843.43	143
1843.84	93
1844.25	115
1844.65	107
1845.06	149
1845.47	109
1845.88	141
1846.28	73.1397
1846.69	142.28
1847.1	118.918
1847.51	81.9927
1847.91	124.259
1848.32	91.9223
1848.73	134.399
1849.14	94.2188
1849.54	129.915
1849.95	100.387
1850.36	146.5
1850.77	88.4106
1851.17	131.695
1851.58	134.296
1851.99	92.5787
1852.39	142.554
1852.8	91.6314
1853.21	121.445
1853.62	104.1
1854.02	128.496
1854.43	94.7486
1854.84	141.655
1855.24	95.9216
1855.65	127.95
1856.06	117.667
1856.46	104.288
1856.87	129.552
1857.28	94.8486
1857.68	105.268
1858.09	88.9031
1858.5	127.393
1858.9	103.583
1859.31	134.925
1859.72	91.3744
1860.12	129.391
1860.53	122.299
1860.94	107.328
1861.34	127.173
1861.75	102.233
1862.15	105.608
1862.56	95.0326
1862.97	137.892
1863.37	106.421
1863.78	130.133
1864.19	101.109
1864.59	109.857
1865	106.122
1865.4	96.1441
1865.81	132.306
1866.22	108.722
1866.62	103.228
1867.03	98.0049
1867.43	128.174
1867.84	124.728
1868.25	125.432
1868.65	97.9405
1869.06	109.144
1869.46	123.428
1869.87	120.946
1870.28	127.903
1870.68	114.195
1871.09	113.701
1871.49	108.606
1871.9	124.859
1872.3	111.664
1872.71	102.627
1873.12	94.4165
1873.52	122.99
1873.93	118.805
1874.33	120.008
1874.74	119.88
1875.14	117.921
1875.55	108.185
1875.95	99.7573
1876.36	116.545
1876.76	111.849
1877.17	116.08
1877.57	103.341
1877.98	122.711
1878.38	114.681
1878.79	126.069
1879.19	120.08
1879.6	117.077
1880	105.596
1880.41	101.702
1880.81	112.279
1881.22	110.605
1881.63	109.191
1882.03	92.6946
1882.43	119.87
1882.84	107.679
1883.24	139.759
1883.65	111.193
1884.05	130.154
1884.46	114.067
1884.86	90.0443
1885.27	110.033
1885.67	123.643
1886.08	121.107
1886.48	104.768
1886.89	119.653
1887.29	91.1538
1887.69	130.752
1888.1	95.9115
1888.5	105.058
1888.85	139
1889.26	116.742
1889.67	120.56
1890.08	127
1890.49	115
1890.9	109
1891.3	115
1891.71	101
1892.12	145
1892.53	115
1892.94	119
1893.35	125
1893.76	93
1894.17	115
1894.58	131
1894.99	101
1895.4	117
1895.81	145
1896.22	93
1896.62	153
1897.03	91
1897.44	107
1897.85	137
1898.26	89
1898.67	113
1899.08	117
1899.49	95
1899.9	113
1900.3	107
1900.71	99
1901.12	117
1901.53	103
1901.94	105
1902.35	129
1902.75	89
1903.16	118.5
1903.57	139
1903.98	130.5
1904.39	133.7
1904.8	95
1905.21	105
1905.61	119
1906.02	113
1906.43	97
1906.84	141
1907.25	99
1907.66	111
1908.06	137
1908.47	95
1908.88	147
1909.29	89
1909.7	103
1910.1	101
1910.51	125
1910.92	85
1911.33	147
1911.73	85
1912.14	77
1912.55	123
1912.96	97
1913.37	125
1913.77	75
1914.18	107
1914.59	105
1915	143
1915.4	101
1915.81	141
1916.22	75
1916.63	109
1917.03	139
1917.44	113
1917.85	143
1918.26	83
1918.66	123
1919.07	113
1919.48	133
1919.89	71
1920.29	153
1920.7	77
1921.11	113
1921.51	125
1921.92	93
1922.33	145
1922.73	77
1923.14	125
1923.55	111
1923.96	121
1924.36	67
1924.77	141
1925.18	65
1925.58	123
1925.99	107
1926.4	123
1926.8	139
1927.21	81
1927.62	137
1928.02	115
1928.43	135
1928.84	75
1929.24	151
1929.65	65
1930.06	147
1930.46	123
1930.87	125
1931.28	147
1931.68	65
1932.09	123
1932.49	107
1932.9	135
1933.31	53
1933.71	143
1934.12	67
1934.53	141
1934.93	113
1935.34	107
1935.74	137
1936.15	55
1936.56	131
1936.96	109
1937.37	141
1937.78	85
1938.18	153
1938.59	87
1938.99	139
1939.4	105
1939.8	119
1940.21	143
1940.62	83
1941.02	103
1941.43	113
1941.83	135
1942.24	67
1942.64	145
1943.05	87
1943.45	143
1943.86	97
1944.27	129
1944.67	131
1945.08	95
1945.48	107
1945.89	99
1946.29	111
1946.7	81
1947.1	133
1947.51	69
1947.91	151
1948.32	93
1948.72	111
1949.13	123
1949.53	89
1949.94	125
1950.34	139
1950.75	121
1951.15	109
1951.56	141
1951.96	95
1952.37	147
1952.77	97
1953.18	117
1953.58	145
1953.99	81
1954.39	105
1954.8	139
1955.2	95
1955.61	125
1956.01	107
1956.42	109
1956.82	133
1957.23	103
1957.63	105
1958.03	117
1958.44	87
1958.84	91
1959.25	131
1959.65	97
1960.06	121
1960.46	107
1960.86	101
1961.27	133
1961.67	99
1962.08	113
1962.48	137
1962.89	97
1963.29	107
1963.69	137
1964.1	107
1964.5	133
1964.91	87
1965.31	127
1965.71	95
1966.12	143
1966.52	99
1966.93	145
1967.33	87
1967.73	107
1968.14	153
1968.54	115
1968.94	137
1969.35	57
1969.75	121
1970.15	111
1970.56	121
1970.96	83
1971.37	149
1971.77	99
1972.17	115
1972.58	137
1972.98	101
1973.38	151
1973.79	89
1974.19	143
1974.59	131
1974.99	139
1975.4	85
1975.8	149
1976.21	89
1976.61	125
1977.01	119
1977.41	107
1977.82	131
1978.22	77
1978.62	113
1979.03	111
1979.43	149
1979.83	87
1980.24	165
1980.64	49
1981.04	149
1981.44	125
1981.85	117
1982.25	147
1982.65	77
1983.05	137
1983.46	113
1983.86	145
1984.26	73
1984.66	137
1985.07	65
1985.47	157
1985.87	119.667
1986.27	113.889
1986.68	130.185
1987.08	121.247
1987.48	132.58
1987.88	123.602
1988.29	165
1988.69	69
1989.09	159
1989.49	81
1989.89	139
1990.3	113
1990.7	113
1991.1	127
1991.5	75
1991.9	113
1992.31	107
1992.71	141
1993.11	81
1993.51	157
1993.91	79
1994.32	143
1994.72	97
1995.12	125
1995.52	133
1995.92	77
1996.32	125
1996.73	113
1997.13	133
1997.53	85
1997.93	179
1998.33	85
1998.73	141
1999.14	107
1999.54	131
1999.94	131
2000.34	85
2000.74	135
2001.14	135
2001.54	127
2001.94	95
2002.35	137
2002.75	73
2003.15	139
2003.55	83
2003.95	113
2004.35	127
2004.75	93
2005.15	133
2005.55	107
2005.96	115
2006.36	83
2006.76	125
2007.16	79
2007.56	151
2007.96	91
2008.36	127
2008.76	137
2009.16	95
2009.56	125
2009.96	123
2010.36	123
2010.76	95
2011.16	137
2011.57	79
2011.97	157
2012.37	111
2012.77	105
2013.17	137
2013.57	97
2013.97	123
2014.37	137
2014.77	127
2015.17	125
2015.57	127
2015.97	99
2016.37	109
2016.77	109
2017.17	129
2017.57	125
2017.97	93
2018.37	93
2018.77	127
2019.17	103
2019.57	127
2019.97	111
2020.37	101
2020.77	137
2021.17	105
2021.57	109
2021.97	139
2022.37	105
2022.77	131
2023.17	141
2023.57	111
2023.97	123
2024.37	91
2024.77	123
2025.17	133
2025.57	115
2025.97	109
2026.37	141
2026.77	83
2027.16	105
2027.56	145
2027.96	121
2028.36	157
2028.76	91
2029.16	121
2029.56	101
2029.96	149
2030.36	93
2030.76	153
2031.16	71
2031.56	107
2031.96	137
2032.35	101
2032.75	147
2033.15	63
2033.55	125
2033.95	113
2034.35	139
2034.75	89
2035.15	143
2035.54	101
2035.94	125
2036.34	137
2036.74	121
2037.14	149
2037.54	77
2037.94	143
2038.34	93
2038.74	137
2039.13	75
2039.53	157
2039.93	71
2040.33	133
2040.73	121
2041.12	117
2041.52	143
2041.92	63
2042.32	113
2042.72	109
2043.12	141
2043.51	83
2043.91	175
2044.31	69
2044.71	135
2045.11	121
2045.51	121
2045.9	133
2046.3	69
2046.7	135
2047.1	125
2047.49	159
2047.89	73
2048.29	163
2048.69	79
2049.09	149
2049.48	107
2049.88	119
2050.28	141
2050.68	77
2051.07	131
2051.47	109
2051.87	129
2052.27	77
2052.67	141
2053.06	67
2053.46	141
2053.86	99
2054.26	129
2054.65	139
2055.05	67
2055.45	131
2055.85	123
2056.24	123
2056.64	83
2057.04	151
2057.43	77
2057.83	137
2058.23	93
2058.62	121
2059.02	157
2059.42	89
2059.82	129
2060.21	125
2060.61	127
2061.01	105
2061.4	153
2061.8	85
2062.2	139
2062.59	87
2062.99	115
2063.39	141
2063.79	109
2064.18	133
2064.58	117
2064.97	137
2065.37	103
2065.77	131
2066.16	99
2066.56	143
2066.96	91
2067.35	119
2067.75	139
2068.15	105
2068.54	115
2068.94	121
2069.34	127
2069.73	109
2070.13	115
2070.52	77
2070.92	137
2071.32	95
2071.71	115
2072.11	139
2072.51	87
2072.9	125
2073.3	125
2073.69	111
2074.09	113
2074.49	123
2074.88	111
2075.28	117
2075.67	101
2076.07	107
2076.47	143
2076.86	95
2077.26	105
2077.65	117
2078.05	111
2078.44	137
2078.84	107
2079.23	89
2079.63	123
2080.03	111
2080.42	117
2080.82	143
2081.21	89
2081.61	101
2082	141
2082.4	117
2082.79	151
2083.19	99
2083.58	119
2083.98	125
2084.37	93
2084.77	99
2085.16	125
2085.56	87
2085.95	117
2086.35	133
2086.74	91
2087.14	151
2087.53	85
2087.93	121
2088.32	121
2088.72	137
2089.11	105
2089.51	155
2089.9	103
2090.3	121
2090.69	143
2091.09	93
2091.48	155
2091.88	83
2092.27	133
2092.67	113
2093.06	115
2093.46	105
2093.85	153
2094.25	97
2094.64	113
2095.03	135
2095.43	105
2095.82	177
2096.22	67
2096.61	133
2097.01	121
2097.4	143
2097.79	75
2098.19	155
2098.58	71
2098.98	131
2099.37	123
2099.76	115
2100.16	135
2100.55	71
2100.95	139
2101.34	103
2101.73	143
2102.13	73
2102.52	171
2102.92	67
2103.31	143
2103.7	103
2104.1	113
2104.49	123
2104.88	63
2105.28	139
2105.67	107
2106.07	131
2106.46	77
2106.85	155
2107.25	71
2107.64	151
2108.03	121
2108.43	103
2108.82	127
2109.21	79
2109.61	145
2110	131
2110.39	131
2110.79	67
2111.18	143
2111.57	87
2111.97	151
2112.36	95
2112.75	119
2113.15	123
2113.54	79
2113.93	121
2114.32	117
2114.72	129
2115.11	75
2115.5	149
2115.9	81
2116.29	151
2116.68	87
2117.08	127
2117.47	141
2117.86	95
2118.25	113
2118.65	149
2119.04	119
2119.43	99
2119.82	145
2120.22	77
2120.61	133
2121	105
2121.39	125
2121.79	139
2122.18	87
2122.57	115
2122.96	127
2123.36	101
2123.75	103
2124.14	113
2124.53	107
2124.93	157
2125.32	103
2125.71	109
2126.1	129
2126.49	103
2126.89	131
2127.28	137
2127.67	103
2128.06	125
2128.45	107
2128.85	105
2129.24	131
2129.63	99
2130.02	115
2130.41	141
2130.81	109
2131.2	97
2131.59	129
2131.98	123
2132.37	137
2132.76	109
2133.16	91
2133.55	119
2133.94	123
2134.33	95
2134.72	127
2135.11	83
2135.5	107
2135.9	109
2136.29	111
2136.68	137
2137.07	95
2137.46	115
2137.85	123
2138.24	131
2138.63	95
2139.03	131
2139.42	79
2139.81	111
2140.2	139
2140.59	105
2140.98	133
2141.37	91
2141.76	121
2142.15	133
2142.55	133
2142.94	97
2143.33	141
2143.72	89
2144.11	97
2144.5	127
2144.89	111
2145.28	147
2145.67	71
2146.06	113
2146.45	105
2146.84	129
2147.23	99
2147.62	165
2148.02	79
2148.4	135
2148.8	125
2149.19	103
2149.58	129
2149.97	57
2150.36	135
2150.75	121
2151.14	163
2151.53	71
2151.92	155
2152.31	65
2152.7	135
2153.09	113
2153.48	89
2153.87	151
2154.26	77
2154.65	135
2155.04	115
2155.43	137
2155.82	85
2156.21	157
2156.6	91
2156.99	135
2157.38	123
2157.77	127
2158.16	141
2158.55	47
2158.94	129
2159.33	117
2159.72	133
2160.11	61
2160.5	143
2160.89	67
2161.28	141
2161.66	117
2162.05	139
2162.44	125
2162.83	61
2163.22	133
2163.61	111
2164	143
2164.39	67
2164.78	141
2165.17	75
2165.56	145
2165.95	105
2166.34	115
2166.73	147
2167.11	69
2167.5	133
2167.89	107
2168.28	145
2168.67	73
2169.06	131
2169.45	79
2169.84	143
2170.23	95
2170.62	99
2171	125
2171.39	83
2171.78	117
2172.17	121
2172.56	123
2172.95	87
2173.34	135
2173.73	69
2174.11	149
2174.5	115
2174.89	129
2175.28	127
2175.67	97
2176.06	117
2176.45	111
2176.83	119
2177.22	97
2177.61	143
2178	97
2178.39	159
2178.78	69
2179.16	103
2179.55	123
2179.94	87
2180.33	115
2180.72	117
2181.1	105
2181.49	119
2181.88	111
2182.27	101
2182.66	119
2183.04	97
2183.43	103
2183.82	145
2184.21	77
2184.6	115
2184.98	131
2185.37	113
2185.76	135
2186.15	95
2186.53	109
2186.92	131
2187.31	97
2187.7	103
2188.08	131
2188.47	95
2188.86	113
2189.25	131
2189.63	119
2190.02	135
2190.41	89
2190.8	103
2191.18	97
2191.57	109
2191.96	97
2192.34	147
2192.73	75
2193.12	95
2193.51	129
2193.89	105
2194.28	125
2194.67	57
2195.06	121
2195.44	103
2195.83	119
2196.22	91
2196.6	147
2196.99	85
2197.38	125
2197.76	145
2198.15	113
2198.54	137
2198.92	53
2199.31	119
2199.7	111
2200.08	145
2200.47	73
2200.86	143
2201.24	83
2201.63	137
2202.02	131
2202.4	89
2202.79	125
2203.18	55
2203.56	127
2203.95	93
2204.34	137
2204.72	75
2205.11	161
2205.49	73
2205.88	129
2206.27	103
2206.65	107
2207.04	147
2207.43	71
2207.81	111
2208.2	95
2208.58	147
2208.97	87
2209.36	149
2209.74	81
2210.13	145
2210.51	113
2210.9	131
2211.29	139
2211.67	69
2212.06	149
2212.44	99
2212.83	141
2213.21	63
2213.6	147
2213.98	71
2214.37	133
2214.76	103
2215.14	97
2215.53	117
2215.91	77.2272
2216.3	136.352
2216.69	116.731
2217.07	122.64
2217.46	69.8331
2217.84	151.709
2218.23	84.4361
2218.61	141.557
2219	102.474
2219.38	131.359
2219.77	139.132
2220.15	93.3749
2220.54	115.458
2220.92	121.583
2221.31	121.405
2221.69	91.86
2222.08	139.352
2222.46	95.7874
2222.85	135.924
2223.23	108.089
2223.62	110.856
2224	126.993
2224.39	93.695
2224.77	111.101
2225.16	125.535
2225.54	110.576
2225.93	98.7078
2226.31	134.11
2226.7	100.51
2227.08	123.879
2227.47	104.676
2227.85	93.3178
2228.23	129.153
2228.62	105.159
2229	113.551
2229.39	119.631
2229.77	118.433
2230.16	100.361
2230.54	116.056
2230.92	109.996
2231.31	118.983
2231.69	111.48
2232.08	94.1635
2232.46	120.875
2232.85	104.573
2233.23	103.691
2233.62	119.749
2234	106.464
2234.38	116.202
2234.77	103.075
2235.15	118.334
2235.54	123.429
2235.92	127
2236.3	110.762
2236.69	122.064
2237.07	106.118
2237.46	97.9099
2237.84	114.755
2238.22	109.942
2238.61	110.348
2238.99	90.8496
2239.37	94.5331
2239.76	123.349
2240.14	121.084
2240.53	109.86
2240.91	106.009
2241.29	119.446
2241.68	121.563
2242.06	123.66
2242.44	109.372
2242.83	112.432
2243.21	98.8938
2243.59	111.263
2243.98	114.45
2244.36	111.147
2244.74	125.36
2245.13	76.4387
2245.51	118.706
2245.89	101.372
2246.28	115.352
2246.66	114.542
2247.04	127.678
2247.43	102.826
2247.81	113.756
2248.19	114.54
2248.58	93.625
2248.96	144.06
2249.34	70.8666
2249.73	138.703
2250.11	98.4998
2250.49	122.359
2250.88	118.404
2251.26	103.212
2251.64	107.815
2252.02	111.779
2252.41	136.47
2252.79	96.0345
2252.8	95
2253.18	167
2253.57	63
2253.96	145
2254.35	109
2254.74	125
2255.12	111
2255.51	97
2255.9	103
2256.29	93
2256.67	149
2257.06	101
2257.45	141
2257.84	65
2258.22	153
2258.61	107
2259	125
2259.39	109
2259.77	111
2260.16	111
2260.55	117
2260.94	109
2261.32	91
2261.71	133
2262.1	71
2262.48	141
2262.87	107
2263.26	131
2263.65	105
2264.03	99
2264.42	101
2264.81	117
2265.19	123
2265.58	109
2265.97	133
2266.35	77
2266.74	129
2267.13	117
2267.51	121
2267.9	109
2268.29	87
2268.67	117
2269.06	129
2269.45	99
2269.83	107
2270.22	141
2270.61	89
2270.99	123
2271.38	115
2271.77	103
2272.15	99
2272.54	107
2272.93	123
2273.31	121
2273.7	101
2274.08	137
2274.47	115
2274.86	105
2275.24	133
2275.63	125
2276.02	119
2276.4	121
2276.79	89
2277.17	113
2277.56	131
2277.95	87
2278.33	121
2278.72	99
2279.1	95
2279.49	129
2279.88	107
2280.26	105
2280.65	139
2281.03	91
2281.42	115
2281.8	131
2282.19	95
2282.58	137
2282.96	107
2283.35	139
2283.73	117
2284.12	129
2284.5	97
2284.89	131
2285.28	99
2285.66	123
2286.05	113
2286.43	85
2286.82	143
2287.2	97
2287.59	113
2287.97	105
2288.36	145
2288.74	95
2289.13	147
2289.51	69
2289.9	129
2290.28	153
2290.67	89
2291.05	131
2291.44	95
2291.82	107
2292.21	113
2292.59	133
2292.98	83
2293.36	149
2293.75	79
2294.13	133
2294.52	129
2294.9	93
2295.29	121
2295.67	99
2296.06	121
2296.44	101
2296.83	143
2297.21	69
2297.6	161
2297.98	53
2298.36	155
2298.75	113
2299.13	97
2299.52	129
2299.9	89
2300.29	123
2300.67	91
2301.06	169
2301.44	81
2301.82	157
2302.21	61
2302.59	135
2302.98	125
2303.36	93
2303.75	141
2304.13	99
2304.51	123
2304.9	95
2305.28	145
2305.67	107
2306.05	167
2306.44	79
2306.82	157
2307.2	89
2307.59	113
2307.97	127
2308.35	93
2308.74	113
2309.12	111
2309.51	135
2309.89	81
2310.27	147
2310.66	55
2311.04	145
2311.42	115
2311.81	123
2312.19	139
2312.57	91
2312.96	103
2313.34	83
2313.73	137
2314.11	91
2314.49	165
2314.88	55
2315.26	159
2315.64	111
2316.03	129
2316.41	133
2316.79	87
2317.18	105
2317.56	103
2317.94	135
2318.32	117
2318.71	127
2319.09	71
2319.47	143
2319.86	117
2320.24	113
2320.62	119
2321.01	91
2321.39	107
2321.77	125
2322.15	111
2322.54	103
2322.92	121
2323.3	89
2323.69	141
2324.07	119
2324.45	139
2324.83	125
2325.22	91
2325.6	129
2325.98	129
2326.36	113
2326.75	129
2327.13	133
2327.51	81
2327.89	135
2328.28	125
2328.66	119
2329.04	117
2329.42	101
2329.81	113
2330.19	137
2330.57	115
2330.95	135
2331.33	105
2331.72	107
2332.1	127
2332.48	131
2332.86	99
2333.24	131
2333.63	85
2334.01	123
2334.39	137
2334.77	87
2335.15	139
2335.54	113
2335.92	109
2336.3	133
2336.68	117
2337.06	107
2337.44	125
2337.83	87
2338.21	113
2338.59	117
2338.97	89
2339.35	137
2339.73	113
2340.12	101
2340.5	119
2340.88	123
2341.26	101
2341.64	139
2342.02	89
2342.41	127
2342.79	121
2343.17	87
2343.55	155
2343.93	89
2344.31	131
2344.69	81
2345.07	129
2345.45	87
2345.84	135
2346.22	93
2346.6	123
2346.98	119
2347.36	105
2347.74	145
2348.12	95
2348.5	117
2348.88	115
2349.26	137
2349.65	89
2350.03	157
2350.41	85
2350.79	139
2351.17	125
2351.55	113
2351.93	143
2352.31	83
2352.69	127
2353.07	91
2353.45	135
2353.83	105
2354.21	143
2354.59	81
2354.98	133
2355.35	125
2355.74	85
2356.12	147
2356.5	93
2356.88	131
2357.26	93
2357.64	137
2358.02	73
2358.4	171
2358.78	69
2359.16	149
2359.54	121
2359.92	99
2360.3	147
2360.68	93
2361.06	137
2361.44	87
2361.82	145
2362.2	113
2362.58	163
2362.96	85
2363.34	153
2363.72	121
2364.1	107
2364.48	143
2364.86	91
2365.24	115
2365.62	99
2366	131
2366.38	91
2366.75	145
2367.14	79
2367.51	145
2367.89	105
2368.27	123
2368.65	145
2369.03	109
2369.41	109
2369.79	101
2370.17	137
2370.55	95
2370.93	155
2371.31	61
2371.69	131
2372.07	117
2372.45	131
2372.83	145
2373.2	93
2373.58	137
2373.96	117
2374.34	121
2374.72	107
2375.1	143
2375.48	73
2375.86	151
2376.24	117
2376.61	113
2376.99	129
2377.37	99
2377.75	135
2378.13	137
2378.51	127
2378.89	125
2379.27	125
2379.65	65
2380.02	121
2380.4	113
2380.78	113
2381.16	111
2381.54	91
2381.92	131
2382.3	137
2382.67	121
2383.05	127
2383.43	137
2383.81	81
2384.19	139
2384.57	107
2384.94	121
2385.32	117
2385.7	113
2386.08	131
2386.46	127
2386.83	109
2387.21	135
2387.59	105
2387.97	109
2388.35	153
2388.73	119
2389.1	105
2389.48	119
2389.86	75
2390.24	129
2390.62	125
2390.99	89
2391.37	143
2391.75	83
2392.13	119
2392.5	127
2392.88	153
2393.26	101
2393.64	129
2394.01	99
2394.39	133
2394.77	131
2395.15	71
2395.52	145
2395.9	105
2396.28	139
2396.66	141
2397.04	165
2397.41	103
2397.79	147
2398.17	91
2398.54	123
2398.92	117
2399.3	105
2399.68	137
2400.05	81
2400.43	119
2400.81	97
2401.18	139
2401.56	89
2401.94	145
2402.32	87
2402.69	141
2403.07	127
2403.45	87
2403.82	143
2404.2	87
2404.58	141
2404.95	79
2405.33	151
2405.71	97
2406.09	157
2406.46	85
2406.84	139
2407.22	121
2407.59	91
2407.97	153
2408.34	83
2408.72	133
2409.1	109
2409.47	149
2409.85	119
2410.23	149
2410.6	67
2410.98	147
2411.36	115
2411.73	113
2412.11	149
2412.49	77
2412.86	121
2413.24	99
2413.61	129
2413.99	93
2414.37	145
2414.74	63
2415.12	141
2415.5	111
2415.87	123
2416.25	143
2416.62	83
2417	143
2417.37	99
2417.75	151
2418.13	103
2418.5	147
2418.88	69
2419.25	157
2419.63	119
2420.01	123
2420.38	153
2420.76	93
2421.13	131
2421.51	97
2421.88	137
2422.26	113
2422.64	137
2423.01	79
2423.39	155
2423.76	139
2424.14	111
2424.51	137
2424.89	89
2425.26	125
2425.64	127
2426.01	125
2426.39	105
2426.76	117
2427.14	69
2427.52	157
2427.89	105
2428.26	143
2428.64	131
2429.02	109
2429.39	127
2429.77	117
2430.14	129
2430.52	127
2430.89	121
2431.26	103
2431.64	127
2432.02	127
2432.39	125
2432.77	137
2433.14	101
2433.51	109
2433.89	117
2434.26	111
2434.64	135
2435.01	115
2435.39	99
2435.76	137
2436.14	131
2436.51	115
2436.89	127
2437.26	101
2437.63	123
2438.01	139
2438.38	109
2438.76	157
2439.13	97
2439.51	111
2439.88	145
2440.26	123
2440.63	121
2441	123
2441.38	111
2441.75	125
2442.13	125
2442.5	91
2442.87	157
2443.25	89
2443.62	133
2444	133
2444.37	137
2444.74	133
2445.12	133
2445.49	87
2445.87	151
2446.24	133
2446.61	89
2446.99	145
2447.36	81
2447.73	135
2448.11	107
2448.48	149
2448.86	81
2449.23	125
2449.6	95
2449.98	147
2450.35	145
2450.72	85
2451.1	171
2451.47	59
2451.84	153
2452.22	117
2452.59	155
2452.97	113
2453.34	135
2453.71	109
2454.08	123
2454.46	139
2454.83	79
2455.2	165
2455.58	87
2455.95	143
2456.32	95
2456.7	133
2457.07	105
2457.44	135
2457.82	95
2458.19	123
2458.56	127
2458.93	89
2459.31	155
2459.68	83
2460.05	139
2460.43	85
2460.8	143
2461.17	107
2461.54	133
2461.92	97
2462.29	161
2462.66	129
2463.03	93
2463.41	167
2463.78	69
2464.15	147
2464.52	83
2464.9	139
2465.27	99
2465.64	139
2466.01	89
2466.39	145
2466.76	127
2467.13	109
2467.5	167
2467.88	75
2468.25	129
2468.62	95
2468.99	137
2469.37	117
2469.74	125
2470.11	79
2470.48	149
2470.85	109
2471.22	123
2471.6	147
2471.97	85
2472.34	113
2472.71	113
2473.08	143
2473.46	117
2473.83	109
2474.2	87
2474.57	151
2474.94	123
2475.32	123
2475.69	141
2476.06	91
2476.43	117
2476.8	119
2477.17	131
2477.55	123
2477.92	117
2478.29	91
2478.66	149
2479.03	123
2479.4	121
2479.77	139
2480.15	77
2480.52	133
2480.89	125
2481.26	103
2481.63	159
2482	83
2482.37	87
2482.74	131
2483.12	97
2483.49	127
2483.86	111
2484.23	99
2484.6	117
2484.97	153
2485.34	107
2485.71	143
2486.08	93
2486.46	115
2486.83	137
2487.2	113
2487.57	109
2487.94	111
2488.31	99
2488.68	137
2489.05	133
2489.42	99
2489.79	149
2490.16	89
2490.53	115
2490.9	111
2491.27	117
2491.64	103
2492.01	123
2492.38	99
2492.76	119
2493.13	129
2493.5	75
2493.87	155
2494.24	85
2494.61	121
2494.98	113
2495.35	125
2495.72	125
2496.09	119
2496.46	105
2496.83	123
2497.2	135
2497.57	67
2497.94	177
2498.31	77
2498.68	141
2499.05	109
2499.42	123
2499.79	113
2500.16	95
2500.53	111
2500.9	121
2501.27	157
2501.64	75
2502.01	159
2502.38	71
2502.75	129
2503.12	111
2503.49	125
2503.86	75
2504.23	119
2504.6	115
2504.97	125
2505.34	121
2505.7	67
2506.07	159
2506.44	81
2506.81	127
2507.18	93
2507.55	141
2507.92	115
2508.29	139
2508.66	85
2509.03	127
2509.4	141
2509.77	83
2510.14	163
2510.5	55
2510.88	151
2511.24	89
2511.61	131
2511.98	91
2512.35	121
2512.72	91
2513.09	139
2513.46	123
2513.83	75
2514.2	149
2514.56	57
2514.93	155
2515.3	95
2515.67	115
2516.04	105
2516.41	133
2516.78	95
2517.15	131
2517.51	131
2517.88	101
2518.25	155
2518.62	81
2518.99	149
2519.36	87
2519.73	141
2520.09	117
2520.46	133
2520.83	87
2521.2	137
2521.57	125
2521.94	101
2522.3	147
2522.67	71
2523.04	155
2523.41	77
2523.78	121
2524.15	111
2524.51	109
2524.88	87
2525.25	133
2525.62	107
2525.98	89
2526.35	143
2526.72	83
2527.09	149
2527.46	91
2527.83	143
2528.19	125
2528.56	123
2528.93	91
2529.3	141
2529.66	113
2530.03	119
2530.4	135
2530.77	85
2531.13	121
2531.5	101
2531.87	125
2532.24	127
2532.61	119
2532.97	69
2533.34	133
2533.71	107
2534.07	105
2534.44	111
2534.81	85
2535.18	123
2535.54	117
2535.91	109
2536.28	131
2536.65	97
2537.01	87
2537.38	139
2537.75	107
2538.11	109
2538.48	107
2538.85	87
2539.22	123
2539.58	119
2539.95	103
2540.32	155
2540.68	91
2541.05	97
2541.42	129
2541.78	115
2542.15	121
2542.52	109
2542.89	117
2543.25	111
2543.62	143
2543.99	83
2544.35	137
2544.72	69
2545.08	101
2545.45	113
2545.82	115
2546.19	115
2546.55	83
2546.92	89
2547.28	115
2547.65	137
2548.02	89
2548.38	155
2548.75	69
2549.12	129
2549.48	123
2549.85	119
2550.21	121
2550.58	109
2550.95	103
2551.31	131
2551.68	133
2552.05	69
2552.41	185
2552.78	67
2553.14	147
2553.51	97
2553.88	121
2554.24	109
2554.61	105
2554.97	111
2555.34	103
2555.71	127
2556.07	75
2556.44	139
2556.8	69
2557.17	143
2557.53	95
2557.9	129
2558.27	123
2558.63	105
2559	103
2559.36	135
2559.73	131
2560.09	85
2560.46	151
2560.82	59
2561.19	147
2561.55	97
2561.92	133
2562.29	117
2562.65	123
2563.02	107
2563.38	129
2563.75	113
2564.11	85
2564.48	161
2564.84	73
2565.21	149
2565.57	83.0439
2565.94	134.487
2566.3	112.974
2566.67	111.978
2567.03	93.8393
2567.4	118.451
2567.76	126.394
2568.13	75.8642
2568.49	152.184
2568.86	68.7848
2569.22	141.736
2569.59	76.6837
2569.95	127.226
2570.32	120.012
2570.68	101.006
2571.05	104.63
2571.41	131.015
2571.78	123.236
2572.14	94.3021
2572.51	146.076
2572.87	99.0163
2573.23	143.576
2573.6	89.1109
2573.96	130.176
2574.33	119.887
2574.69	118.31
2575.06	94.8603
2575.42	126.56
2575.79	118.607
2576.15	107.79
2576.51	134.161
2576.88	81.764
2577.24	129.241
2577.61	85.9472
2577.97	128.505
2578.34	117.637
2578.7	118.012
2579.06	94.1681
2579.43	126.878
2579.79	108.08
2580.16	111.197
2580.52	136.606
2580.88	104.335
2581.25	118.033
2581.61	102.526
2581.98	111.957
2582.34	134.199
2582.7	120.009
2583.07	96.6334
2583.43	121.874
2583.8	117.084
2584.16	115.813
2584.52	134.034
2584.89	104.67
2585.25	125.228
2585.61	116.496
2585.98	104.851
2586.34	111.607
2586.7	110.37
2587.07	102.034
2587.43	108.34
2587.8	112.031
2588.16	113.208
2588.52	130.1
2588.88	94.8174
2589.25	127.159
2589.61	118.361
2589.97	108.185
2590.34	131.772
2590.7	110.487
2591.06	113.878
2591.43	107.332
2591.79	123.286
2592.15	100.939
2592.52	126.231
2592.88	90.2497
2593.24	117.554
2593.61	143.303
2593.97	87.1911
2594.33	133.664
2594.7	124.429
2595.06	103.146
2595.42	116.215
2595.78	119.961
2596.15	112.739
2596.51	124.846
2596.87	115.809
2597.24	104.601
2597.6	143.959
2597.96	118.888
2598.32	112.139
2598.69	128.343
2599.05	111.555
2599.41	120.885
2599.78	116.085
2600.14	115.51
2600.5	128.442
2600.86	108.459
2600.95	101
2601.31	123
2601.68	149
2602.05	99
2602.42	127
2602.78	139
2603.15	115
2603.52	151
2603.89	107
2604.25	147
2604.62	131
2604.99	121
2605.35	115
2605.72	141
2606.09	77
2606.46	101
2606.82	139
2607.19	99
2607.56	139
2607.92	99
2608.29	125
2608.66	119
2609.03	169
2609.39	117
2609.76	169
2610.13	99
2610.49	135
2610.86	131
2611.23	119
2611.59	139
2611.96	93
2612.33	143
2612.69	123
2613.06	149
2613.43	99
2613.79	169
2614.16	87
2614.53	107
2614.89	121
2615.26	107
2615.62	139
2615.99	75
2616.36	127
2616.72	119
2617.09	155
2617.46	91
2617.82	155
2618.19	89
2618.56	133
2618.92	137
2619.29	129
2619.65	149
2620.02	85
2620.39	137
2620.75	143
2621.12	157
2621.48	91
2621.85	179
2622.22	75
2622.58	149
2622.95	125
2623.31	165
2623.68	179
2624.04	77
2624.41	133
2624.78	139
2625.14	121
2625.51	85
2625.87	175
2626.24	79
2626.6	151
2626.97	131
2627.34	137
2627.7	147
2628.07	95
2628.43	137
2628.8	137
2629.16	167
2629.53	111
2629.9	187
2630.26	97
2630.63	193
2630.99	131
2631.36	143
2631.72	147
2632.09	127
2632.45	151
2632.82	137
2633.18	183
2633.55	107
2633.91	185
2634.28	109
2634.64	171
2635.01	129
2635.37	165
2635.74	151
2636.1	119
2636.47	147
2636.83	143
2637.2	171
2637.56	113
2637.93	171
2638.29	133
2638.66	189
2639.02	145
2639.39	147
2639.75	169
2640.12	119
2640.48	133
2640.84	169
2641.21	175
2641.57	149
2641.94	185
2642.3	133
2642.67	187
2643.03	137
2643.4	165
2643.76	181
2644.13	157
2644.49	157
2644.85	157
2645.22	185
2645.58	155
2645.95	221
2646.31	153
2646.68	197
2647.04	129
2647.4	179
2647.77	197
2648.13	163
2648.5	165
2648.86	209
2649.22	167
2649.59	151
2649.95	205
2650.32	151
2650.68	213
2651.04	151
2651.41	211
2651.77	233
2652.14	185
2652.5	177
2652.86	211
2653.23	205
2653.59	201
2653.95	209
2654.32	203
2654.68	221
2655.05	193
2655.41	181
2655.77	207
2656.14	181
2656.5	209
2656.86	217
2657.23	173
2657.59	193
2657.95	205
2658.32	193
2658.68	211
2659.04	225
2659.41	219
2659.77	239
2660.13	187
2660.5	179
2660.86	227
2661.22	211
2661.59	217
2661.95	195
2662.31	185
2662.68	221
2663.04	225
2663.4	199
2663.76	237
2664.13	149
2664.49	219
2664.85	215
2665.22	203
2665.58	239
2665.94	191
2666.3	191
2666.67	205
2667.03	231
2667.39	185
2667.76	275
2668.12	155
2668.48	195
2668.84	215
2669.21	195
2669.57	235
2669.93	171
2670.29	201
2670.66	203
2671.02	237
2671.38	163
2671.74	261
2672.11	171
2672.47	223
2672.83	203
2673.19	215
2673.56	199
2673.92	147
2674.28	199
2674.64	207
2675	211
2675.37	151
2675.73	233
2676.09	145
2676.45	209
2676.81	189
2677.18	185
2677.54	179
2677.9	159
2678.26	199
2678.62	187
2678.99	213
2679.35	151
2679.71	227
2680.07	127
2680.43	229
2680.8	155
2681.16	193
2681.52	179
2681.88	133
2682.24	171
2682.6	167
2682.97	179
2683.33	139
2683.69	207
2684.05	113
2684.41	215
2684.77	143
2685.13	173
2685.5	163
2685.86	167
2686.22	161
2686.58	187
2686.94	177
2687.3	131
2687.66	189
2688.03	97
2688.39	199
2688.75	125
2689.11	171
2689.47	179
2689.83	151
2690.19	141
2690.55	167
2690.91	149
2691.28	85
2691.64	179
2692	117
2692.36	179
2692.72	119
2693.08	167
2693.44	151
2693.8	143
2694.16	141
2694.52	167
2694.88	135
2695.24	129
2695.61	159
2695.97	121
2696.33	165
2696.69	127
2697.05	147
2697.41	157
2697.77	121
2698.13	113
2698.49	187
2698.85	131
2699.21	121
2699.57	169
2699.93	113
2700.29	147
2700.65	105
2701.01	139
2701.37	141
2701.73	167
2702.09	111
2702.45	145
2702.81	127
2703.18	135
2703.53	159
2703.89	93
2704.25	141
2704.62	117
2704.98	139
2705.33	143
2705.69	127
2706.06	117
2706.42	143
2706.78	125
2707.13	125
2707.49	137
2707.85	119
2708.22	141
2708.57	137
2708.93	103
2709.29	165
2709.65	99
2710.01	97
2710.37	157
2710.73	121
2711.09	131
2711.45	109
2711.81	137
2712.17	123
2712.53	149
2712.89	121
2713.25	153
2713.61	117
2713.97	117
2714.33	141
2714.69	117
2715.05	131
2715.41	127
2715.76	115
2716.12	125
2716.48	133
2716.84	111
2717.2	157
2717.56	91
2717.92	137
2718.28	137
2718.64	119
2719	139
2719.35	97
2719.71	119
2720.07	145
2720.43	159
2720.79	101
2721.15	157
2721.51	83
2721.87	143
2722.23	125
2722.59	125
2722.94	121
2723.3	85
2723.66	129
2724.02	119
2724.38	153
2724.74	75
2725.1	165
2725.46	83
2725.81	137
2726.17	117
2726.53	125
2726.89	145
2727.25	107
2727.61	129
2727.96	121
2728.32	149
2728.68	87
2729.04	163
2729.4	89
2729.75	139
2730.11	119
2730.47	131
2730.83	117
2731.19	109
2731.55	113
2731.91	137
2732.26	137
2732.62	73
2732.98	157
2733.34	65
2733.69	163
2734.05	103
2734.41	147
2734.77	113
2735.13	101
2735.48	117
2735.84	125
2736.2	143
2736.56	69
2736.91	155
2737.27	71
2737.63	157
2737.99	95
2738.35	129
2738.7	131
2739.06	107
2739.42	97
2739.78	133
2740.13	141
2740.49	77
2740.85	157
2741.21	79
2741.56	155
2741.92	103
2742.28	131
2742.64	121
2742.99	119
2743.35	111
2743.71	141
2744.06	119
2744.42	77
2744.78	161
2745.14	75
2745.49	137
2745.85	81
2746.21	131
2746.57	115
2746.92	125
2747.28	97
2747.64	141
2747.99	127
2748.35	101
2748.71	167
2749.06	89
2749.42	157
2749.78	81
2750.13	143
2750.49	141
2750.85	113
2751.2	97
2751.56	121
2751.92	109
2752.27	105
2752.63	133
2752.99	71
2753.34	127
2753.7	117
2754.06	117
2754.41	135
2754.77	97
2755.13	95
2755.48	145
2755.84	109
2756.2	127
2756.55	125
2756.91	87
2757.26	111
2757.62	121
2757.98	129
2758.33	159
2758.69	107
2759.04	105
2759.4	135
2759.76	115
2760.11	115
2760.47	151
2760.83	101
2761.18	133
2761.54	135
2761.89	107
2762.25	167
2762.61	93
2762.96	97
2763.32	125
2763.67	133
2764.03	117
2764.38	109
2764.74	107
2765.1	103
2765.45	135
2765.81	85
2766.16	147
2766.52	97
2766.88	101
2767.23	125
2767.59	135
2767.94	125
2768.3	105
2768.65	107
2769.01	119
2769.36	131
2769.72	97
2770.07	145
2770.43	77
2770.78	113
2771.14	125
2771.49	127
2771.85	111
2772.21	113
2772.56	103
2772.92	127
2773.27	131
2773.63	81
2773.98	145
2774.34	89
2774.69	119
2775.05	121
2775.4	139
2775.76	125
2776.11	125
2776.47	81
2776.82	115
2777.18	143
2777.53	99
2777.89	167
2778.24	71
2778.59	137
2778.95	113
2779.3	129
2779.66	117
2780.01	103
2780.37	121
2780.72	125
2781.08	135
2781.43	65
2781.79	157
2782.14	85
2782.49	157
2782.85	121
2783.2	145
2783.56	109
2783.91	131
2784.27	95
2784.62	115
2784.98	141
2785.33	85
2785.68	167
2786.04	87
2786.39	133
2786.75	101
2787.1	127
2787.46	127
2787.81	115
2788.16	95
2788.52	135
2788.87	137
2789.22	79
2789.58	153
2789.93	87
2790.29	147
2790.64	103
2790.99	137
2791.35	89
2791.7	115
2792.06	103
2792.41	123
2792.76	127
2793.12	81
2793.47	159
2793.82	65
2794.18	153
2794.53	101
2794.88	123
2795.24	123
2795.59	107
2795.95	89
2796.3	131
2796.65	119
2797.01	77
2797.36	177
2797.71	89
2798.07	151
2798.42	97
2798.77	131
2799.13	105
2799.48	125
2799.83	89
2800.19	139
2800.54	141
2800.89	87
2801.24	173
2801.6	67
2801.95	125
2802.3	91
2802.66	137
2803.01	103
2803.36	133
2803.72	85
2804.07	139
2804.42	107
2804.77	77
2805.13	145
2805.48	73
2805.83	139
2806.19	79
2806.54	129
2806.89	117
2807.24	121
2807.6	97
2807.95	137
2808.3	121
2808.65	125
2809.01	159
2809.36	91
2809.71	135
2810.06	99
2810.42	129
2810.77	131
2811.12	107
2811.47	83
2811.83	149
2812.18	119
2812.53	117
2812.88	135
2813.24	87
2813.59	123
2813.94	103
2814.29	117
2814.64	125
2815	115
2815.35	79
2815.7	135
2816.05	103
2816.4	119
2816.76	139
2817.11	95
2817.46	131
2817.81	125
2818.16	107
2818.52	119
2818.87	115
2819.22	77
2819.57	119
2819.92	119
2820.28	111
2820.63	129
2820.98	103
2821.33	131
2821.68	141
2822.03	107
2822.39	133
2822.74	91
2823.09	101
2823.44	141
2823.79	99
2824.14	111
2824.49	115
2824.85	109
2825.2	117
2825.55	125
2825.9	89
2826.25	139
2826.6	91
2826.95	87
2827.31	135
2827.66	133
2828.01	123
2828.36	103
2828.71	101
2829.06	137
2829.41	137
2829.76	85
2830.11	123
2830.46	87
2830.82	125
2831.17	113
2831.52	137
2831.87	101
2832.22	125
2832.57	85
2832.92	145
2833.27	123
2833.62	87
2833.97	159
2834.32	49
2834.68	139
2835.03	93
2835.38	119
2835.73	89
2836.08	123
2836.43	93
2836.78	119
2837.13	127
2837.48	85
2837.83	147
2838.18	85
2838.53	129
2838.88	113
2839.23	137
2839.58	91
2839.93	127
2840.28	109
2840.63	137
2840.98	131
2841.33	93
2841.68	145
2842.03	91
2842.38	149
2842.73	93
2843.08	147
2843.43	87
2843.78	141
2844.13	79
2844.48	127
2844.83	131
2845.18	103
2845.53	147
2845.88	67
2846.23	133
2846.58	73
2846.93	135
2847.28	79
2847.63	133
2847.98	69
2848.33	127
2848.68	119
2849.03	71
2849.38	139
2849.73	77
2850.08	143
2850.43	105
2850.78	133
2851.13	83
2851.48	145
2851.83	77
2852.18	141
2852.53	113
2852.88	87
2853.23	139
2853.57	77
2853.92	127
2854.27	81
2854.62	137
2854.97	105
2855.32	133
2855.67	55
2856.02	135
2856.37	101
2856.72	85
2857.07	145
2857.42	83
2857.76	137
2858.11	93
2858.46	153
2858.81	109
2859.16	129
2859.51	77
2859.86	141
2860.21	121
2860.56	103
2860.91	149
2861.25	99
2861.6	133
2861.95	91
2862.3	135
2862.65	119
2863	127
2863.35	83
2863.69	131
2864.04	91
2864.39	107
2864.74	113
2865.09	91
2865.44	111
2865.78	105
2866.13	139
2866.48	107
2866.83	115
2867.18	65
2867.53	127
2867.88	93
2868.22	113
2868.57	129
2868.92	89
2869.27	125
2869.62	99
2869.96	127
2870.31	125
2870.66	125
2871.01	77
2871.36	135
2871.7	117
2872.05	99
2872.4	125
2872.75	81
2873.1	125
2873.44	109
2873.79	123
2874.14	125
2874.49	97
2874.84	83
2875.18	125
2875.53	113
2875.88	103
2876.23	119
2876.57	97
2876.92	115
2877.27	127
2877.62	93
2877.97	131
2878.31	81
2878.66	91
2879.01	121
2879.36	117
2879.7	103
2880.05	111
2880.4	113
2880.74	127
2881.09	131
2881.44	111
2881.79	137
2882.13	95
2882.48	93
2882.83	125
2883.18	115
2883.52	119
2883.87	125
2884.22	79
2884.56	123
2884.91	131
2885.26	89
2885.61	129
2885.95	73
2886.3	105
2886.65	101
2886.99	131
2887.34	77
2887.69	123
2888.03	79
2888.38	107
2888.73	129
2889.07	61
2889.42	147
2889.77	53
2890.11	127
2890.46	115
2890.81	123
2891.15	107
2891.5	143
2891.85	95
2892.19	137
2892.54	133
2892.89	77
2893.23	143
2893.58	77
2893.93	129
2894.27	87
2894.62	137
2894.96	73
2895.31	147
2895.66	55
2896	127
2896.35	91.09
2896.7	105.151
2897.04	124.484
2897.39	96.0309
2897.73	131.971
2898.08	77.6237
2898.43	134.177
2898.77	96.465
2899.12	148.843
2899.46	51.8017
2899.81	122.017
2900.16	116.213
2900.5	100.719
2900.85	132.934
2901.19	75.0289
2901.54	138.665
2901.88	85.443
2902.23	141.093
2902.58	100.55
2902.92	149.949
2903.27	82.2721
2903.61	128.528
2903.96	109.299
2904.31	118.5
2904.65	133.302
2905	80.2752
2905.34	125.13
2905.69	78.6436
2906.03	132.489
2906.38	83.7044
2906.72	137.82
2907.07	68.8445
2907.42	116.981
2907.76	106.293
2908.11	107.83
2908.45	126.385
2908.8	91.6667
2909.14	129.165
2909.49	84.98
2909.83	142.961
2910.18	93.4247
2910.52	141.751
2910.87	80.4247
2911.21	120.987
2911.56	107.299
2911.9	118.062
2912.25	123.726
2912.59	89.4077
2912.94	117.863
2913.28	95.8767
2913.63	124.413
2913.97	101.902
2914.32	124.203
2914.66	81.0468
2915.01	115.2
2915.35	109.225
2915.7	115.998
2916.04	114.348
2916.39	95.0469
2916.73	109.694
2917.08	88.1613
2917.42	105.676
2917.77	110.807
2918.11	121.545
2918.46	105.185
2918.8	120.66
2919.15	109.961
2919.49	119.065
2919.83	117.724
2920.18	106.834
2920.52	117.727
2920.87	106.466
2921.21	107.889
2921.56	131.59
2921.9	120.735
2922.24	111.22
2922.59	112.739
2922.93	105.387
2923.28	119.542
2923.62	113.449
2923.97	99.4826
2924.31	115.676
2924.65	114.175
2925	104.847
2925.34	119.941
2925.69	117.738
2926.03	101.758
2926.38	106.124
2926.72	102.361
2927.06	122.001
2927.41	121.844
2927.75	107.298
2928.09	125.027
2928.44	119.563
2928.78	108.712
2929.13	131.308
2929.47	103.394
2929.81	100.81
2930.16	123.229
2930.5	108.392
2930.79	115
2931.14	131
2931.49	99
2931.84	115
2932.19	109
2932.54	105
2932.88	115
2933.23	149
2933.58	91
2933.93	147
2934.28	73
2934.63	121
2934.97	133
2935.32	83
2935.67	123
2936.02	103
2936.37	111
2936.71	101
2937.06	151
2937.41	77
2937.76	143
2938.11	83
2938.46	125
2938.8	127
2939.15	95
2939.5	117
2939.85	95
2940.19	99
2940.54	97
2940.89	129
2941.24	97
2941.59	143
2941.93	63
2942.28	119
2942.63	111
2942.98	109
2943.32	137
2943.67	113
2944.02	111
2944.37	95
2944.72	137
2945.06	75
2945.41	145
2945.76	59
2946.11	139
2946.45	117
2946.8	107
2947.15	139
2947.49	93
2947.84	121
2948.19	87
2948.54	143
2948.88	93
2949.23	165
2949.58	27
2949.93	153
2950.27	97
2950.62	111
2950.97	111
2951.31	113
2951.66	101
2952.01	101
2952.35	129
2952.7	87
2953.05	163
2953.4	49
2953.74	143
2954.09	107
2954.44	113
2954.78	119
2955.13	107
2955.48	105
2955.82	129
2956.17	119
2956.52	97
2956.86	151
2957.21	47
2957.56	159
2957.9	107
2958.25	100.6
2958.6	85
2958.94	105
2959.29	103
2959.64	125
2959.98	155
2960.33	81
2960.68	155
2961.02	47
2961.37	135
2961.72	99
2962.06	131
2962.41	113
2962.76	113
2963.1	91
2963.45	127
2963.79	121
2964.14	109
2964.49	133
2964.83	65
2965.18	137
2965.52	103
2965.87	111
2966.22	125
2966.56	95
2966.91	121
2967.25	129
2967.6	117
2967.95	115
2968.29	119
2968.64	77
2968.98	127
2969.33	123
2969.68	119
2970.02	103
2970.37	89
2970.71	115
2971.06	129
2971.4	113
2971.75	109
2972.1	131
2972.44	91
2972.79	131
2973.13	105
2973.48	127
2973.82	121
2974.17	105
2974.51	123
2974.86	137
2975.21	97
2975.55	127
2975.9	115
2976.24	93
2976.59	113
2976.93	129
2977.28	103
2977.62	123
2977.97	109
2978.31	119
2978.66	127
2979	93
2979.35	131
2979.69	107
2980.04	105
2980.38	127
2980.73	125
2981.07	83
2981.42	129
2981.76	91
2982.11	103
2982.45	115
2982.8	89
2983.14	123
2983.49	99
2983.83	119
2984.18	131
2984.52	123
2984.87	95
2985.21	147
2985.56	95
2985.9	123
2986.25	133
2986.59	91
2986.94	149
2987.28	131
2987.62	107
2987.97	95
2988.31	143
2988.66	79
2989	165
2989.35	81
2989.69	125
2990.03	113
2990.38	99
2990.72	131
2991.07	99
2991.41	125
2991.76	85
2992.1	129
2992.44	79
2992.79	177
2993.13	67
2993.48	123
2993.82	107
2994.17	91
2994.51	127
2994.85	97
2995.2	125
2995.54	83
2995.89	137
2996.23	91
2996.57	167
2996.92	65
2997.26	135
2997.6	115
2997.95	119
2998.29	125
2998.64	117
2998.98	111
2999.32	101
2999.67	147
