#Acq. time (s)=	30
#Accumulations=	1
#Range (cm-¹)=	1050...3000 (30 s) 
#Windows=	6
#Auto scanning=	Off
#Autofocus=	Off
#AutoExposure=	Off
#Spike filter=	Off
#Delay time (s)=	0
#Binning=	1
#Readout mode=	Signal
#DeNoise=	Off
#ICS correction=	Off
#Dark correction=	Off
#Inst. Process=	Off
#Detector Gain=	High Sensitivity
#Detector ADC=	45 kHz       
#Detector temperature (°C)=	-60.1
#Instrument=	LabRAM
#Detector=	Syncerity
#Objective=	x50LWD
#Grating=	1800
#Filter=	25%
#Laser (nm)=	532
#Hole=	100
#E-Cal_Neon=	0
#StageXY=	Marzhauser
#StageZ=	Marzhauser
#X (µm)=	0
#Y (µm)=	0
#Z (µm)=	-1678.85
#Spectral res.(cm-¹)=	1.9
#Full time(mm:ss)=	3:14
#AC=	Not calibrated
#Project=	
#Sample=	
#Site=	
#Title=	Spot 2 RT
#Remark=	
#Date=	19.02.2026 14:20
#Acquired=	19.02.2026 14:20:48
#Edit:Spike=	19.02.2026 14:20:51
#Edit:Spike=	19.02.2026 14:23:52
#AxisType[0]=Intens
#AxisUnit[0]=Cnt
#AxisType[1]=Spectr
#AxisUnit[1]=1/cm
1050.13	183
1050.59	145
1051.05	149
1051.51	145
1051.97	159
1052.44	121
1052.9	161
1053.36	145
1053.82	137
1054.28	185
1054.74	101
1055.2	167
1055.67	131
1056.13	145
1056.59	137
1057.05	115
1057.51	129
1057.97	175
1058.43	129
1058.89	153
1059.36	125
1059.82	109
1060.28	165
1060.74	149
1061.2	135
1061.66	151
1062.12	139
1062.58	201
1063.04	179
1063.5	125
1063.96	167
1064.43	105
1064.89	161
1065.35	141
1065.81	169
1066.27	151
1066.73	131
1067.19	129
1067.65	133
1068.11	173
1068.57	67
1069.03	185
1069.49	65
1069.95	167
1070.41	143
1070.87	139
1071.33	175
1071.79	133
1072.25	141
1072.71	127
1073.17	153
1073.63	97
1074.09	179
1074.55	99
1075.01	177
1075.47	133
1075.93	131
1076.39	177
1076.85	115
1077.31	159
1077.77	125
1078.23	169
1078.69	103
1079.15	147
1079.61	123
1080.07	177
1080.53	143
1080.99	135
1081.45	169
1081.91	119
1082.37	169
1082.83	141
1083.29	119
1083.75	135
1084.21	131
1084.66	135
1085.12	137
1085.58	123
1086.04	149
1086.5	147
1086.96	141
1087.42	157
1087.88	137
1088.34	123
1088.8	169
1089.25	109
1089.71	171
1090.17	151
1090.63	97
1091.09	169
1091.55	119
1092.01	159
1092.47	115
1092.92	169
1093.38	133
1093.84	147
1094.3	113
1094.76	165
1095.22	181
1095.68	97
1096.13	175
1096.59	89
1097.05	171
1097.51	117
1097.97	145
1098.43	133
1098.88	139
1099.34	135
1099.8	145
1100.26	163
1100.72	127
1101.17	183
1101.63	93
1102.09	165
1102.55	139
1103.01	165
1103.46	153
1103.92	125
1104.38	145
1104.84	149
1105.29	123
1105.75	153
1106.21	155
1106.67	151
1107.12	159
1107.58	117
1108.04	137
1108.5	167
1108.95	113
1109.41	127
1109.87	143
1110.33	135
1110.78	175
1111.24	123
1111.7	147
1112.16	121
1112.61	129
1113.07	139
1113.53	149
1113.98	123
1114.44	143
1114.9	161
1115.35	117
1115.81	187
1116.27	111
1116.72	171
1117.18	129
1117.64	137
1118.1	145
1118.55	117
1119.01	151
1119.47	123
1119.92	163
1120.38	101
1120.84	185
1121.29	71
1121.75	189
1122.2	143
1122.66	147
1123.12	179
1123.57	123
1124.03	161
1124.49	137
1124.94	165
1125.4	151
1125.86	163
1126.31	99
1126.77	163
1127.22	145
1127.68	161
1128.14	155
1128.59	125
1129.05	137
1129.5	155
1129.96	129
1130.41	169
1130.87	115
1131.33	113
1131.78	143
1132.24	143
1132.69	157
1133.15	115
1133.61	153
1134.06	157
1134.52	169
1134.97	137
1135.43	173
1135.88	105
1136.34	143
1136.79	151
1137.25	143
1137.7	179
1138.16	105
1138.61	169
1139.07	139
1139.52	165
1139.98	115
1140.43	195
1140.89	115
1141.34	159
1141.8	151
1142.25	131
1142.71	187
1143.16	81
1143.62	165
1144.07	123
1144.53	161
1144.98	139
1145.44	131
1145.89	141
1146.35	137.1
1146.8	136
1147.26	138.5
1147.71	151.833
1148.16	151.267
1148.62	181
1149.07	149
1149.53	153
1149.98	165
1150.44	107
1150.89	155
1151.35	161
1151.8	153
1152.25	147
1152.71	131
1153.16	115
1153.62	147
1154.07	181
1154.52	113
1154.98	161
1155.43	113
1155.89	151
1156.34	179
1156.79	101
1157.25	179
1157.7	121
1158.16	153
1158.61	155
1159.06	143
1159.52	143
1159.97	119
1160.42	169
1160.88	147
1161.33	167
1161.78	113
1162.24	205
1162.69	101
1163.14	173
1163.6	173
1164.05	157
1164.5	159
1164.96	85
1165.41	147
1165.86	145
1166.32	155
1166.77	115
1167.22	193
1167.68	133
1168.13	193
1168.58	139
1169.04	145
1169.49	183
1169.94	101
1170.39	169
1170.85	143
1171.3	171
1171.75	127
1172.2	155
1172.66	119
1173.11	167
1173.56	135
1174.01	135
1174.47	159
1174.92	123
1175.37	163
1175.82	147
1176.28	135
1176.73	135
1177.18	115
1177.63	143
1178.09	143
1178.54	141
1178.99	159
1179.44	115
1179.89	167
1180.35	121
1180.8	177
1181.25	123
1181.7	165
1182.15	113
1182.61	175
1183.06	153
1183.51	107
1183.96	179
1184.41	99
1184.87	171
1185.32	119
1185.77	175
1186.22	133
1186.67	139
1187.12	111
1187.58	167
1188.03	153
1188.48	103
1188.93	179
1189.38	105
1189.83	175
1190.28	125
1190.73	157
1191.19	147
1191.64	135
1192.09	131
1192.54	149
1192.99	153
1193.44	137
1193.89	159
1194.34	119
1194.8	177
1195.25	113
1195.7	145
1196.15	155
1196.6	127
1197.05	139
1197.5	143
1197.95	131
1198.4	161
1198.85	117
1199.3	141
1199.75	139
1200.2	119
1200.66	139
1201.11	149
1201.56	119
1202.01	137
1202.46	157
1202.91	111
1203.36	193
1203.81	65
1204.26	181
1204.71	133
1205.16	139
1205.61	185
1206.06	137
1206.51	157
1206.96	133
1207.41	175
1207.86	107
1208.31	197
1208.76	97
1209.21	187
1209.66	121
1210.11	125
1210.56	167
1211.01	119
1211.46	149
1211.91	119
1212.36	159
1212.81	125
1213.26	171
1213.71	115
1214.16	161
1214.61	139
1215.05	131
1215.51	141
1215.95	123
1216.4	149
1216.85	167
1217.3	139
1217.75	181
1218.2	125
1218.65	129
1219.1	149
1219.55	139
1220	147
1220.45	125
1220.9	127
1221.34	137
1221.79	155
1222.24	135
1222.69	181
1223.14	103
1223.59	155
1224.04	143
1224.49	141
1224.94	167
1225.38	99
1225.83	157
1226.28	135
1226.73	145
1227.18	109
1227.63	181
1228.07	81
1228.52	147
1228.97	145
1229.42	149
1229.87	185
1230.32	89
1230.76	173
1231.21	107
1231.66	167
1232.11	121
1232.56	165
1233.01	121
1233.45	163
1233.9	159
1234.35	141
1234.8	169
1235.25	95
1235.69	189
1236.14	137
1236.59	157
1237.04	137
1237.49	115
1237.93	135
1238.38	167
1238.83	143
1239.28	129
1239.72	145
1240.17	101
1240.62	167
1241.07	149
1241.51	133
1241.96	143
1242.41	135
1242.86	153
1243.3	183
1243.75	115
1244.2	191
1244.65	133
1245.09	141
1245.54	129
1245.99	137
1246.44	147
1246.88	135
1247.33	127
1247.78	159
1248.22	169
1248.67	107
1249.12	173
1249.56	105
1250.01	167
1250.46	133
1250.9	173
1251.35	157
1251.8	121
1252.24	127
1252.69	159
1253.14	181
1253.58	85
1254.03	203
1254.48	101
1254.92	175
1255.37	121
1255.82	151
1256.26	159
1256.71	127
1257.15	169
1257.6	123
1258.05	155
1258.49	101
1258.94	179
1259.39	127
1259.83	169
1260.28	131
1260.72	145
1261.17	187
1261.62	101
1262.06	169
1262.51	143
1262.95	145
1263.4	159
1263.85	151
1264.29	155
1264.74	161
1265.18	141
1265.63	141
1266.07	153
1266.52	137
1266.97	147
1267.41	169
1267.86	121
1268.3	169
1268.75	115
1269.19	159
1269.64	171
1270.08	99
1270.53	161
1270.97	103
1271.42	171
1271.86	139
1272.31	159
1272.76	141
1273.2	169
1273.64	111
1274.09	169
1274.53	151
1274.98	91
1275.42	195
1275.87	123
1276.31	163
1276.76	135
1277.2	177
1277.65	145
1278.09	159
1278.54	123
1278.98	163
1279.43	151
1279.87	91
1280.32	209
1280.76	91
1281.21	197
1281.65	129
1282.09	165
1282.54	135
1282.98	123
1283.43	139
1283.87	153
1284.32	163
1284.76	141
1285.21	153
1285.65	139
1286.09	139
1286.54	127
1286.98	145
1287.42	181
1287.87	127
1288.31	159
1288.76	151
1289.2	157
1289.64	183
1290.09	125
1290.53	155
1290.98	147
1291.42	149
1291.86	149
1292.31	191
1292.75	137
1293.19	127
1293.64	163
1294.08	123
1294.53	207
1294.97	91
1295.41	179
1295.85	147
1296.3	157
1296.74	173
1297.19	145
1297.63	161
1298.07	115
1298.51	183
1298.96	123
1299.4	191
1299.84	97
1300.29	153
1300.73	159
1301.17	137
1301.62	177
1302.06	95
1302.5	165
1302.94	149
1303.39	153
1303.83	135
1304.27	165
1304.72	87
1305.16	185
1305.6	149
1306.04	155
1306.49	165
1306.93	129
1307.37	173
1307.81	155
1308.26	153
1308.7	165
1309.14	129
1309.58	111
1310.03	161
1310.47	145
1310.91	157
1311.35	155
1311.8	147
1312.24	139
1312.68	151
1313.12	105
1313.56	185
1314	105
1314.45	175
1314.89	141
1315.33	169
1315.77	191
1316.22	109
1316.66	177
1317.1	133
1317.54	195
1317.98	113
1318.43	179
1318.87	99
1319.31	195
1319.75	163
1320.19	127
1320.63	209
1321.07	91
1321.51	185
1321.96	163
1322.4	165
1322.84	155
1323.28	151
1323.72	139
1324.16	169
1324.6	171
1325.05	159
1325.49	175
1325.93	107
1326.37	195
1326.81	171
1327.25	165
1327.69	165
1328.13	151
1328.57	165
1329.02	167
1329.45	135
1329.9	195
1330.34	161
1330.78	143
1331.22	183
1331.66	175
1332.1	165
1332.54	181
1332.98	159
1333.42	187
1333.86	197
1334.3	161
1334.74	213
1335.18	151
1335.62	197
1336.07	195
1336.5	191
1336.95	209
1337.39	181
1337.83	171
1338.27	191
1338.71	223
1339.15	149
1339.59	227
1340.03	131
1340.47	235
1340.91	197
1341.35	207
1341.79	183
1342.23	181
1342.67	229
1343.11	215
1343.55	245
1343.99	161
1344.43	271
1344.86	159
1345.31	241
1345.74	185
1346.18	199
1346.62	243
1347.06	167
1347.5	223
1347.94	191
1348.38	205
1348.82	191
1349.26	223
1349.7	191
1350.14	235
1350.58	185
1351.02	195
1351.46	227
1351.9	171
1352.33	213
1352.77	217
1353.21	177
1353.65	201
1354.09	185
1354.53	185
1354.97	191
1355.41	151
1355.85	209
1356.29	173
1356.72	179
1357.16	175
1357.6	169
1358.04	147
1358.48	195
1358.92	173
1359.36	197
1359.79	177
1360.23	141
1360.67	189
1361.11	143
1361.55	185
1361.99	153
1362.43	205
1362.87	149
1363.3	177
1363.74	145
1364.18	199
1364.62	165
1365.06	127
1365.49	193
1365.93	119
1366.37	209
1366.81	119
1367.25	181
1367.68	177
1368.12	151
1368.56	149
1369	179
1369.44	159
1369.87	145
1370.31	215
1370.75	121
1371.19	195
1371.62	127
1372.06	177
1372.5	181
1372.94	117
1373.37	155
1373.81	167
1374.25	155
1374.69	169
1375.12	151
1375.56	133
1376	157
1376.44	133
1376.87	133
1377.31	185
1377.75	143
1378.19	161
1378.62	171
1379.06	135
1379.5	203
1379.93	95
1380.37	157
1380.81	151
1381.25	175
1381.68	155
1382.12	169
1382.56	165
1382.99	127
1383.43	155
1383.87	141
1384.3	221
1384.74	75
1385.18	155
1385.61	131
1386.05	169
1386.49	171
1386.92	143
1387.36	143
1387.8	129
1388.23	165
1388.67	149
1389.1	177
1389.54	85
1389.98	201
1390.41	139
1390.85	157
1391.29	177
1391.72	107
1392.16	165
1392.59	147
1393.03	157
1393.47	143
1393.9	149
1394.34	107
1394.77	171
1395.21	155
1395.65	171
1396.08	165
1396.52	129
1396.95	151
1397.39	153
1397.82	137
1398.26	203
1398.7	105
1399.13	141
1399.57	165
1400	145
1400.44	163
1400.87	117
1401.31	147
1401.74	149
1402.18	177
1402.62	95
1403.05	183
1403.49	95
1403.92	161
1404.36	153
1404.79	139
1405.23	193
1405.66	87
1406.1	167
1406.53	135
1406.97	175
1407.4	111
1407.84	169
1408.27	145
1408.71	165
1409.14	155
1409.58	125
1410.01	175
1410.45	95
1410.88	169
1411.31	127
1411.75	143
1412.18	151
1412.62	133
1413.05	143
1413.49	165
1413.92	161
1414.36	165
1414.79	163
1415.23	113
1415.66	165
1416.1	137
1416.53	151
1416.96	143
1417.4	135
1417.83	145
1418.27	147
1418.7	137
1419.13	135
1419.57	135
1420	139
1420.44	147
1420.87	175
1421.3	127
1421.74	147
1422.17	119
1422.61	157
1423.04	173
1423.47	115
1423.91	189
1424.34	97
1424.77	195
1425.21	141
1425.64	153
1426.07	137
1426.51	135
1426.94	135
1427.38	127
1427.81	179
1428.24	91
1428.68	215
1429.11	101
1429.54	177
1429.98	137
1430.41	143
1430.84	169
1431.28	105
1431.71	155
1432.14	135
1432.57	163
1433.01	121
1433.44	189
1433.87	135
1434.31	179
1434.74	143
1435.17	145
1435.61	175
1436.04	101
1436.47	177
1436.9	133
1437.34	145
1437.77	151
1438.2	137
1438.63	131
1439.07	179
1439.5	127
1439.93	157
1440.36	153
1440.8	141
1441.23	161
1441.66	139
1442.09	139
1442.53	137
1442.96	121
1443.39	153
1443.82	147
1444.26	119
1444.69	179
1445.12	139
1445.55	161
1445.98	157
1446.42	165
1446.85	143
1447.28	171
1447.71	125
1448.14	153
1448.57	159
1449.01	119
1449.44	189
1449.87	121
1450.3	179
1450.73	129
1451.17	159
1451.6	131
1452.03	163
1452.46	127
1452.89	151
1453.32	169
1453.76	103
1454.19	195
1454.62	89
1455.05	175
1455.48	117
1455.91	163
1456.34	161
1456.77	137
1457.21	167
1457.64	161
1458.07	159
1458.5	113.059
1458.93	180.232
1459.36	115.151
1459.79	177.546
1460.22	136.839
1460.65	146.467
1461.08	161.603
1461.52	129.546
1461.95	149.782
1462.38	160.6
1462.81	170.115
1463.24	131.825
1463.67	142.839
1464.1	150.475
1464.53	151.157
1464.96	105.095
1465.39	143.702
1465.82	158.316
1466.25	133.606
1466.68	136.554
1467.11	157.744
1467.54	115.591
1467.98	161.972
1468.41	109.977
1468.84	153.179
1469.27	148.206
1469.7	139.367
1470.13	156.78
1470.56	144.517
1470.99	130.462
1471.42	125.971
1471.85	157.405
1472.28	115.171
1472.71	167.393
1473.14	127.632
1473.57	163.07
1474	126.263
1474.43	147.07
1474.86	142.854
1475.29	134.451
1475.72	146.733
1476.15	138.351
1476.58	170.417
1477.01	121.347
1477.44	161.499
1477.87	123.334
1478.3	163.46
1478.72	144.709
1479.15	130.722
1479.58	156.342
1480.01	131.454
1480.44	148.596
1480.87	114.342
1481.3	157.294
1481.73	142.952
1482.16	136.37
1482.59	138.84
1483.02	147.18
1483.45	173.179
1483.88	111.269
1484.31	159.79
1484.74	128.02
1485.17	148.661
1485.59	149.974
1486.02	141.607
1486.45	146.063
1486.88	125.809
1487.31	170.145
1487.74	138.298
1488.17	159.555
1488.6	127.587
1489.02	139.099
1489.45	146.776
1489.88	146.473
1490.31	152.437
1490.74	135.237
1491.17	152.741
1491.6	140.978
1492.03	151.873
1492.45	152.162
1492.88	171.366
1493.31	136.364
1493.74	145.1
1494.17	174.693
1494.6	158.271
1495.02	155.284
1495.45	135.64
1495.88	137.883
1496.31	138.214
1496.74	143.158
1497.17	131.907
1497.59	147.747
1498.02	138.275
1498.45	135.975
1498.88	163.423
1499.31	131.407
1499.73	147.303
1500.16	139.974
1500.59	134.135
1501.02	157.072
1501.45	154.483
1501.87	156.426
1502.13	167
1502.56	129
1502.99	145
1503.43	183
1503.86	167
1504.29	169
1504.72	153
1505.16	143
1505.59	169
1506.02	183
1506.46	107
1506.89	185
1507.32	123
1507.75	141
1508.19	157
1508.62	141
1509.05	147
1509.49	113
1509.92	151
1510.35	149
1510.78	163
1511.21	123
1511.65	199
1512.08	101
1512.51	167
1512.94	155
1513.38	143
1513.81	181
1514.24	103
1514.67	175
1515.11	149
1515.54	175
1515.97	103
1516.4	179
1516.83	139
1517.27	189
1517.7	169
1518.13	155
1518.56	167
1518.99	107
1519.42	199
1519.86	151
1520.29	175
1520.72	105
1521.15	145
1521.58	125
1522.01	181
1522.45	147
1522.88	135
1523.31	157
1523.74	127
1524.17	177
1524.6	151
1525.04	145
1525.47	143
1525.9	137
1526.33	169
1526.76	157
1527.19	129
1527.62	155
1528.05	139
1528.49	147
1528.92	149
1529.35	173
1529.78	153
1530.21	181
1530.64	141
1531.07	201
1531.5	177
1531.93	139
1532.37	197
1532.8	133
1533.23	165
1533.66	147
1534.09	193
1534.52	147
1534.95	191
1535.38	137
1535.81	179
1536.24	177
1536.67	121
1537.1	203
1537.53	117
1537.96	179
1538.39	123
1538.82	189
1539.26	141
1539.68	157
1540.12	135
1540.55	195
1540.98	171
1541.41	161
1541.84	213
1542.27	121
1542.7	201
1543.13	129
1543.56	191
1543.99	183
1544.42	161
1544.85	121
1545.28	173
1545.71	177
1546.14	161
1546.57	183
1547	127
1547.43	215
1547.86	159
1548.29	163
1548.72	151
1549.14	127
1549.57	153
1550.01	159
1550.43	145
1550.86	165
1551.29	145
1551.72	169
1552.15	165
1552.58	149
1553.01	155
1553.44	189
1553.87	135
1554.3	169
1554.73	189
1555.16	149
1555.59	231
1556.01	123
1556.44	191
1556.87	179
1557.3	171
1557.73	165
1558.16	185
1558.59	167
1559.02	153
1559.45	205
1559.88	149
1560.3	225
1560.73	107
1561.16	197
1561.59	147
1562.02	183
1562.45	169
1562.88	179
1563.31	157
1563.73	171
1564.16	193
1564.59	177
1565.02	205
1565.45	109
1565.88	209
1566.3	169
1566.73	195
1567.16	201
1567.59	153
1568.02	193
1568.45	201
1568.88	229
1569.3	209
1569.73	227
1570.16	153
1570.59	219
1571.01	225
1571.44	199
1571.87	223
1572.3	179
1572.73	245
1573.15	231
1573.58	217
1574.01	217
1574.44	203
1574.87	227
1575.29	227
1575.72	227
1576.15	235
1576.58	241
1577	237
1577.43	257
1577.86	271
1578.29	253
1578.71	299
1579.14	239
1579.57	279
1580	295
1580.42	283
1580.85	319
1581.28	255
1581.71	323
1582.13	321
1582.56	361
1582.99	319
1583.41	413
1583.84	345
1584.27	419
1584.7	427
1585.12	401
1585.55	475
1585.98	371
1586.4	495
1586.83	507
1587.26	515
1587.68	499
1588.11	581
1588.54	547
1588.96	635
1589.39	657
1589.82	609
1590.24	719
1590.67	655
1591.1	733
1591.52	743
1591.95	797
1592.38	809
1592.8	811
1593.23	793
1593.65	827
1594.08	801
1594.51	851
1594.93	797
1595.36	689
1595.79	817
1596.21	715
1596.64	657
1597.06	665
1597.49	659
1597.92	635
1598.34	579
1598.77	539
1599.19	499
1599.62	487
1600.05	431
1600.47	415
1600.9	403
1601.32	405
1601.75	387
1602.18	291
1602.6	335
1603.03	345
1603.45	283
1603.88	307
1604.3	265
1604.73	267
1605.15	229
1605.58	251
1606	231
1606.43	225
1606.86	215
1607.28	237
1607.71	261
1608.13	169
1608.56	271
1608.98	145
1609.41	237
1609.83	181
1610.26	223
1610.68	203
1611.11	189
1611.53	193
1611.96	181
1612.38	201
1612.81	145
1613.23	237
1613.66	143
1614.08	195
1614.51	161
1614.93	175
1615.36	201
1615.78	133
1616.21	175
1616.63	191
1617.06	177
1617.48	155
1617.9	185
1618.33	155
1618.75	225
1619.18	165
1619.6	187
1620.03	183
1620.45	183
1620.88	177
1621.3	181
1621.72	173
1622.15	179
1622.57	187
1623	163
1623.42	187
1623.85	147
1624.27	153
1624.69	167
1625.12	147
1625.54	171
1625.97	171
1626.39	145
1626.81	199
1627.24	141
1627.66	179
1628.08	161
1628.51	177
1628.93	173
1629.36	165
1629.78	157
1630.2	127
1630.63	193
1631.05	119
1631.47	215
1631.9	109
1632.32	193
1632.74	153
1633.17	159
1633.59	175
1634.01	139
1634.44	155
1634.86	113
1635.28	179
1635.71	101
1636.13	179
1636.55	107
1636.98	195
1637.4	151
1637.82	143
1638.25	185
1638.67	145
1639.09	169
1639.51	139
1639.94	153
1640.36	141
1640.78	155
1641.21	107
1641.63	173
1642.05	139
1642.47	161
1642.9	173
1643.32	123
1643.74	161
1644.17	141
1644.59	147
1645.01	171
1645.43	131
1645.86	111
1646.28	163
1646.7	137
1647.12	151
1647.55	117
1647.97	139
1648.39	157
1648.81	161
1649.23	121
1649.66	179
1650.08	127
1650.5	157
1650.92	159
1651.35	133
1651.77	151
1652.19	95
1652.61	147
1653.03	141
1653.45	163
1653.88	103
1654.3	181
1654.72	105
1655.14	149
1655.56	143
1655.99	115
1656.41	171
1656.83	81
1657.25	183
1657.67	121
1658.09	153
1658.52	99
1658.94	167
1659.36	97
1659.78	153
1660.2	145
1660.62	133
1661.04	181
1661.47	85
1661.89	187
1662.31	135
1662.73	151
1663.15	111
1663.57	127
1663.99	113
1664.41	149
1664.83	133
1665.26	119
1665.68	145
1666.1	81
1666.52	175
1666.94	145
1667.36	131
1667.78	113
1668.2	115
1668.62	143
1669.04	151
1669.46	125
1669.89	139
1670.31	125
1670.73	117
1671.15	155
1671.57	139
1671.99	119
1672.41	147
1672.83	95
1673.25	141
1673.67	125
1674.09	107
1674.51	165
1674.93	113
1675.35	153
1675.77	141
1676.19	147
1676.61	119
1677.03	121
1677.45	109
1677.87	137
1678.29	157
1678.71	109
1679.13	187
1679.55	73
1679.97	177
1680.39	111
1680.81	157
1681.23	109
1681.65	117
1682.07	129
1682.49	129
1682.91	149
1683.33	85
1683.75	169
1684.17	87
1684.59	173
1685.01	109
1685.43	121
1685.85	147
1686.27	109
1686.69	159
1687.11	133
1687.53	133
1687.95	113
1688.37	137
1688.78	123
1689.2	175
1689.62	139
1690.04	141
1690.46	161
1690.88	103
1691.3	131
1691.72	131
1692.14	105
1692.56	145
1692.98	111
1693.39	125
1693.81	151
1694.23	133
1694.65	137
1695.07	131
1695.49	125
1695.91	129
1696.33	133
1696.75	121
1697.16	161
1697.58	99
1698	157
1698.42	129
1698.84	119
1699.26	143
1699.68	117
1700.09	129
1700.51	109
1700.93	151
1701.35	81
1701.77	161
1702.19	85
1702.6	161
1703.02	107
1703.44	127
1703.86	149
1704.28	83
1704.69	157
1705.11	93
1705.53	149
1705.95	109
1706.37	161
1706.78	75
1707.2	151
1707.62	125
1708.04	141
1708.46	155
1708.87	99
1709.29	133
1709.71	109
1710.13	139
1710.54	121
1710.96	131
1711.38	89
1711.8	151
1712.22	113
1712.63	133
1713.05	135
1713.47	95
1713.89	141
1714.3	155
1714.72	131
1715.14	165
1715.56	109
1715.97	103
1716.39	153
1716.81	119
1717.22	127
1717.64	97
1718.06	123
1718.48	125
1718.89	137
1719.31	111
1719.73	149
1720.14	77
1720.56	135
1720.98	133
1721.39	139
1721.81	151
1722.23	73
1722.64	135
1723.06	141
1723.48	153
1723.89	95
1724.31	179
1724.73	89
1725.14	141
1725.56	123
1725.98	115
1726.39	163
1726.81	77
1727.23	157
1727.64	107
1728.06	155
1728.48	93
1728.89	135
1729.31	107
1729.72	167
1730.14	129
1730.56	97
1730.97	163
1731.39	83
1731.8	147
1732.22	125
1732.64	117
1733.05	125
1733.47	111
1733.89	139
1734.3	143
1734.72	105
1735.13	141
1735.55	135
1735.96	119
1736.38	147
1736.8	117
1737.21	113
1737.63	131
1738.04	101
1738.46	137
1738.87	157
1739.29	101
1739.71	167
1740.12	101
1740.54	127
1740.95	133
1741.37	159
1741.78	111
1742.2	141
1742.61	103
1743.03	125
1743.44	139
1743.86	73
1744.27	151
1744.69	83
1745.1	153
1745.52	115
1745.93	143
1746.35	119
1746.77	145
1747.18	123
1747.59	139
1748.01	133
1748.42	77
1748.84	181
1749.25	75
1749.67	159
1750.08	115
1750.5	147
1750.91	137
1751.33	117
1751.74	109
1752.16	135
1752.57	149
1752.99	97
1753.4	189
1753.81	79
1754.23	157
1754.64	107
1755.06	131
1755.47	171
1755.89	103
1756.3	129
1756.72	125
1757.13	125
1757.54	101
1757.96	127
1758.37	105
1758.78	153
1759.2	93
1759.61	137
1760.03	129
1760.44	105
1760.86	125
1761.27	135
1761.68	115
1762.1	149
1762.51	111
1762.92	141
1763.34	147
1763.75	99
1764.17	133
1764.58	133
1764.99	113
1765.41	129
1765.82	143
1766.23	113
1766.65	155
1767.06	107
1767.47	147
1767.89	123
1768.3	95
1768.71	123
1769.13	95
1769.54	123
1769.95	105
1770.37	137
1770.78	87
1771.19	185
1771.61	63
1772.02	155
1772.43	115
1772.85	119
1773.26	135
1773.67	101
1774.09	135
1774.5	101
1774.91	169
1775.32	87
1775.74	155
1776.15	75
1776.56	155
1776.97	121
1777.39	127
1777.8	151
1778.21	79
1778.62	143
1779.04	95
1779.45	147
1779.86	115
1780.28	119
1780.69	81
1781.1	127
1781.51	139
1781.92	117
1782.34	123
1782.75	89
1783.16	113
1783.57	135
1783.99	125
1784.4	159
1784.81	103
1785.22	107
1785.63	131
1786.05	129
1786.46	155
1786.87	115
1787.28	127
1787.69	135
1788.11	169
1788.52	125
1788.93	167
1789.34	95
1789.75	125
1790.17	135
1790.58	113
1790.99	153
1791.4	93
1791.81	139
1792.22	117
1792.63	137
1793.05	105
1793.46	159
1793.87	93
1794.28	143
1794.69	141
1795.1	117
1795.52	147
1795.93	49
1796.34	155
1796.75	111
1797.16	157
1797.57	85
1797.98	129
1798.39	97
1798.81	149
1799.22	129
1799.63	123
1800.04	181
1800.45	75
1800.86	165
1801.27	133
1801.68	137
1802.09	123
1802.5	105
1802.91	133
1803.32	145
1803.73	125
1804.15	113
1804.56	129
1804.97	109
1805.38	137
1805.79	141
1806.2	117
1806.61	139
1807.02	91
1807.43	129
1807.84	139
1808.25	101
1808.66	149
1809.07	85
1809.48	137
1809.89	117
1810.3	123
1810.71	113
1811.12	139
1811.53	99
1811.94	123
1812.35	145
1812.76	79
1813.17	171
1813.58	97
1813.99	149
1814.4	101
1814.81	131
1815.22	127
1815.63	119
1816.04	107
1816.45	135
1816.86	159
1817.27	83
1817.68	165
1818.09	57
1818.5	169
1818.91	91
1819.32	149
1819.73	123
1820.14	123
1820.55	109
1820.96	139
1821.37	129
1821.78	109
1822.19	155
1822.6	85
1823.01	145
1823.42	81
1823.82	141
1824.23	153
1824.64	115
1825.05	133
1825.46	135
1825.87	149
1826.28	135
1826.69	129
1827.1	107
1827.51	135
1827.91	109
1828.32	129
1828.73	153
1829.14	101
1829.55	131
1829.96	153
1830.37	111
1830.78	161
1831.18	95
1831.59	131
1832	123
1832.41	117
1832.82	123
1833.23	119
1833.64	107
1834.05	117
1834.45	149
1834.86	87
1835.27	169
1835.68	65
1836.09	145
1836.49	115
1836.9	113
1837.31	135
1837.72	85
1838.13	125
1838.53	117
1838.94	125
1839.35	93
1839.76	151
1840.17	65
1840.58	151
1840.98	121
1841.39	127
1841.8	147
1842.21	101
1842.61	121
1843.02	73
1843.43	155
1843.84	103
1844.25	141
1844.65	75
1845.06	159
1845.47	131
1845.88	125
1846.28	131.069
1846.69	91.4419
1847.1	136.543
1847.51	119.724
1847.91	137.855
1848.32	117.878
1848.73	108.767
1849.14	106.362
1849.54	157.708
1849.95	122.594
1850.36	123.706
1850.77	132.169
1851.17	91.3533
1851.58	148.789
1851.99	114.416
1852.39	108.123
1852.8	157.035
1853.21	110.952
1853.62	111.169
1854.02	133.356
1854.43	119.438
1854.84	126.071
1855.24	100.555
1855.65	117.956
1856.06	116.098
1856.46	147.185
1856.87	90.013
1857.28	156.11
1857.68	91.3493
1858.09	115.549
1858.5	145.02
1858.9	110.882
1859.31	144.215
1859.72	89.1711
1860.12	135.877
1860.53	127.555
1860.94	142.643
1861.34	119.444
1861.75	136.478
1862.15	92.3681
1862.56	135.524
1862.97	137.802
1863.37	112.912
1863.78	143.114
1864.19	104.629
1864.59	130.285
1865	130.628
1865.4	128.391
1865.81	125.516
1866.22	139.445
1866.62	106.745
1867.03	148.039
1867.43	109.851
1867.84	129.241
1868.25	133.488
1868.65	108.241
1869.06	131.926
1869.46	121.39
1869.87	123.946
1870.28	129.918
1870.68	122.347
1871.09	112.923
1871.49	143.615
1871.9	111.883
1872.3	127.013
1872.71	126.807
1873.12	124.894
1873.52	130.342
1873.93	132.785
1874.33	111.637
1874.74	122.771
1875.14	121.207
1875.55	130.139
1875.95	141.237
1876.36	121.341
1876.76	137.638
1877.17	122.81
1877.57	126.63
1877.98	131.115
1878.38	132.602
1878.79	109.534
1879.19	119.37
1879.6	126.817
1880	118.861
1880.41	137.654
1880.81	122.19
1881.22	132.053
1881.63	116.993
1882.03	121.145
1882.43	130.831
1882.84	124.067
1883.24	110.442
1883.65	115.701
1884.05	141.261
1884.46	146
1884.86	138.78
1885.27	113.94
1885.67	116.929
1886.08	115.77
1886.48	138.427
1886.89	121.862
1887.29	149.403
1887.69	87.1208
1888.1	127.708
1888.5	148.886
1888.85	127
1889.26	163
1889.67	81
1890.08	147
1890.49	121
1890.9	151
1891.3	87
1891.71	145
1892.12	95
1892.53	127
1892.94	129
1893.35	97
1893.76	167
1894.17	59
1894.58	145
1894.99	99
1895.4	137
1895.81	125
1896.22	139
1896.62	113
1897.03	129
1897.44	139
1897.85	133
1898.26	181
1898.67	59
1899.08	175
1899.49	119
1899.9	149
1900.3	119
1900.71	109
1901.12	119
1901.53	117
1901.94	123
1902.35	125
1902.75	153
1903.16	73
1903.57	159
1903.98	113
1904.39	125
1904.8	111
1905.21	97
1905.61	125
1906.02	137
1906.43	141
1906.84	111
1907.25	115
1907.66	103
1908.06	139
1908.47	119
1908.88	125
1909.29	133
1909.7	111
1910.1	137
1910.51	127
1910.92	113
1911.33	155
1911.73	93
1912.14	131
1912.55	113
1912.96	141
1913.37	113
1913.77	113
1914.18	121
1914.59	135
1915	159
1915.4	89
1915.81	177
1916.22	65
1916.63	147
1917.03	125
1917.44	137
1917.85	123
1918.26	97
1918.66	117
1919.07	127
1919.48	151
1919.89	61
1920.29	159
1920.7	87
1921.11	145
1921.51	87
1921.92	147
1922.33	131
1922.73	107
1923.14	123
1923.55	147
1923.96	151
1924.36	97
1924.77	147
1925.18	81
1925.58	193
1925.99	107
1926.4	133
1926.8	135
1927.21	95
1927.62	113
1928.02	125
1928.43	113
1928.84	111
1929.24	111
1929.65	99
1930.06	133
1930.46	113
1930.87	113
1931.28	155
1931.68	103
1932.09	111
1932.49	127
1932.9	93
1933.31	147
1933.71	93
1934.12	143
1934.53	127
1934.93	107
1935.34	119
1935.74	121
1936.15	95
1936.56	97
1936.96	147
1937.37	103
1937.78	177
1938.18	65
1938.59	149
1938.99	121
1939.4	119
1939.8	133
1940.21	97
1940.62	137
1941.02	109
1941.43	165
1941.83	105
1942.24	173
1942.64	65
1943.05	139
1943.45	113
1943.86	131
1944.27	131
1944.67	95
1945.08	139
1945.48	79
1945.89	135
1946.29	103
1946.7	153
1947.1	83
1947.51	145
1947.91	113
1948.32	137
1948.72	139
1949.13	85
1949.53	141
1949.94	101
1950.34	167
1950.75	129
1951.15	133
1951.56	105
1951.96	143
1952.37	129
1952.77	127
1953.18	141
1953.58	103
1953.99	161
1954.39	133
1954.8	123
1955.2	151
1955.61	99
1956.01	117
1956.42	129
1956.82	115
1957.23	143
1957.63	107
1958.03	115
1958.44	119
1958.84	145
1959.25	93
1959.65	161
1960.06	91
1960.46	149
1960.86	145
1961.27	101
1961.67	149
1962.08	81
1962.48	135
1962.89	123
1963.29	153
1963.69	101
1964.1	149
1964.5	97
1964.91	135
1965.31	133
1965.71	133
1966.12	157
1966.52	65
1966.93	161
1967.33	113
1967.73	159
1968.14	99
1968.54	159
1968.94	95
1969.35	151
1969.75	127
1970.15	105
1970.56	159
1970.96	71
1971.37	159
1971.77	107
1972.17	145
1972.58	117
1972.98	129
1973.38	119
1973.79	149
1974.19	133
1974.59	129
1974.99	141
1975.4	65
1975.8	143
1976.21	119
1976.61	131
1977.01	131
1977.41	91
1977.82	141
1978.22	139
1978.62	105
1979.03	135
1979.43	115
1979.83	113
1980.24	139
1980.64	139
1981.04	121
1981.44	149
1981.85	121
1982.25	147
1982.65	135
1983.05	103
1983.46	153
1983.86	99
1984.26	143
1984.66	119
1985.07	137
1985.47	119
1985.87	129
1986.27	115
1986.68	119
1987.08	121
1987.48	79
1987.88	177
1988.29	83
1988.69	165
1989.09	127
1989.49	121
1989.89	111
1990.3	119
1990.7	123
1991.1	127
1991.5	151
1991.9	95
1992.31	171
1992.71	81
1993.11	155
1993.51	113
1993.91	127
1994.32	131
1994.72	117
1995.12	133
1995.52	129
1995.92	149
1996.32	87
1996.73	163
1997.13	87
1997.53	161
1997.93	113
1998.33	119
1998.73	151
1999.14	89
1999.54	137
1999.94	133
2000.34	133
2000.74	113
2001.14	135
2001.54	113
2001.94	155
2002.35	107
2002.75	117
2003.15	149
2003.55	107
2003.95	119
2004.35	137
2004.75	111
2005.15	159
2005.55	91
2005.96	143
2006.36	141
2006.76	123
2007.16	115
2007.56	135
2007.96	111
2008.36	123
2008.76	133
2009.16	81
2009.56	179
2009.96	105
2010.36	157
2010.76	119
2011.16	127
2011.57	143
2011.97	129
2012.37	121
2012.77	97
2013.17	151
2013.57	69
2013.97	195
2014.37	77
2014.77	177
2015.17	113
2015.57	157
2015.97	139
2016.37	113
2016.77	143
2017.17	119
2017.57	169
2017.97	109
2018.37	163
2018.77	63
2019.17	149
2019.57	123
2019.97	137
2020.37	141
2020.77	95
2021.17	117
2021.57	113
2021.97	153
2022.37	135
2022.77	153
2023.17	81
2023.57	167
2023.97	103
2024.37	105
2024.77	143
2025.17	101
2025.57	139
2025.97	147
2026.37	123
2026.77	149
2027.16	137
2027.56	117
2027.96	151
2028.36	125
2028.76	133
2029.16	119
2029.56	113
2029.96	129
2030.36	143
2030.76	113
2031.16	173
2031.56	77
2031.96	129
2032.35	117
2032.75	141
2033.15	145
2033.55	97
2033.95	127
2034.35	129
2034.75	171
2035.15	81
2035.54	189
2035.94	79
2036.34	161
2036.74	131
2037.14	127
2037.54	173
2037.94	77
2038.34	139
2038.74	119
2039.13	141
2039.53	85
2039.93	173
2040.33	97
2040.73	157
2041.12	139
2041.52	111
2041.92	151
2042.32	85
2042.72	165
2043.12	127
2043.51	141
2043.91	97
2044.31	143
2044.71	95
2045.11	157
2045.51	115
2045.9	113
2046.3	137
2046.7	75
2047.1	131
2047.49	121
2047.89	127
2048.29	103
2048.69	125
2049.09	131
2049.48	161
2049.88	101
2050.28	111
2050.68	133
2051.07	103
2051.47	147
2051.87	133
2052.27	117
2052.67	125
2053.06	95
2053.46	125
2053.86	147
2054.26	127
2054.65	141
2055.05	109
2055.45	107
2055.85	129
2056.24	155
2056.64	107
2057.04	143
2057.43	93
2057.83	149
2058.23	125
2058.62	93
2059.02	165
2059.42	97
2059.82	137
2060.21	113
2060.61	143
2061.01	121
2061.4	117
2061.8	109
2062.2	135
2062.59	143
2062.99	85
2063.39	187
2063.79	57
2064.18	159
2064.58	105
2064.97	141
2065.37	111
2065.77	109
2066.16	107
2066.56	129
2066.96	141
2067.35	91
2067.75	165
2068.15	75
2068.54	155
2068.94	101
2069.34	147
2069.73	141
2070.13	121
2070.52	105
2070.92	135
2071.32	131
2071.71	115
2072.11	151
2072.51	93
2072.9	143
2073.3	113
2073.69	117
2074.09	161
2074.49	95
2074.88	121
2075.28	137
2075.67	111
2076.07	119
2076.47	105
2076.86	101
2077.26	147
2077.65	107
2078.05	131
2078.44	175
2078.84	115
2079.23	111
2079.63	143
2080.03	99
2080.42	175
2080.82	99
2081.21	149
2081.61	111
2082	137
2082.4	133
2082.79	151
2083.19	103
2083.58	107
2083.98	145
2084.37	83
2084.77	167
2085.16	55
2085.56	143
2085.95	119
2086.35	137
2086.74	131
2087.14	125
2087.53	125
2087.93	155
2088.32	159
2088.72	107
2089.11	157
2089.51	61
2089.9	151
2090.3	99
2090.69	133
2091.09	133
2091.48	109
2091.88	105
2092.27	123
2092.67	145
2093.06	131
2093.46	155
2093.85	59
2094.25	173
2094.64	131
2095.03	129
2095.43	129
2095.82	111
2096.22	129
2096.61	189
2097.01	144.167
2097.4	144.967
2097.79	147.667
2098.19	115
2098.58	139
2098.98	141
2099.37	125
2099.76	111
2100.16	79
2100.55	141
2100.95	139
2101.34	99
2101.73	153
2102.13	81
2102.52	129
2102.92	115
2103.31	117
2103.7	129
2104.1	117
2104.49	111
2104.88	113
2105.28	141
2105.67	79
2106.07	171
2106.46	85
2106.85	163
2107.25	125
2107.64	139
2108.03	123
2108.43	91
2108.82	139
2109.21	135
2109.61	147
2110	69
2110.39	177
2110.79	93
2111.18	161
2111.57	109
2111.97	135
2112.36	133
2112.75	99
2113.15	137
2113.54	125
2113.93	145
2114.32	85
2114.72	161
2115.11	73
2115.5	159
2115.9	99
2116.29	117
2116.68	153
2117.08	111
2117.47	137
2117.86	133
2118.25	125
2118.65	95
2119.04	123
2119.43	109
2119.82	153
2120.22	117
2120.61	109
2121	143
2121.39	103
2121.79	139
2122.18	125
2122.57	101
2122.96	157
2123.36	95
2123.75	155
2124.14	135
2124.53	123
2124.93	139
2125.32	123
2125.71	113
2126.1	113
2126.49	147
2126.89	97
2127.28	145
2127.67	91
2128.06	135
2128.45	117
2128.85	113
2129.24	157
2129.63	95
2130.02	129
2130.41	109
2130.81	173
2131.2	125
2131.59	183
2131.98	87
2132.37	151
2132.76	115
2133.16	105
2133.55	157
2133.94	117
2134.33	141
2134.72	107
2135.11	173
2135.5	121
2135.9	167
2136.29	75
2136.68	139
2137.07	133
2137.46	95
2137.85	141
2138.24	83
2138.63	141
2139.03	75
2139.42	119
2139.81	107
2140.2	123
2140.59	97
2140.98	151
2141.37	129
2141.76	131
2142.15	151
2142.55	97
2142.94	143
2143.33	109
2143.72	121
2144.11	153
2144.5	115
2144.89	109
2145.28	145
2145.67	111
2146.06	121
2146.45	107
2146.84	121
2147.23	107
2147.62	145
2148.02	109
2148.4	151
2148.8	77
2149.19	103
2149.58	127
2149.97	97
2150.36	153
2150.75	65
2151.14	125
2151.53	113
2151.92	145
2152.31	95
2152.7	155
2153.09	87
2153.48	125
2153.87	137
2154.26	95
2154.65	159
2155.04	59
2155.43	155
2155.82	113
2156.21	167
2156.6	107
2156.99	159
2157.38	101
2157.77	135
2158.16	141
2158.55	99
2158.94	159
2159.33	47
2159.72	151
2160.11	107
2160.5	137
2160.89	117
2161.28	117
2161.66	105
2162.05	121
2162.44	125
2162.83	117
2163.22	137
2163.61	87
2164	153
2164.39	147
2164.78	119
2165.17	109
2165.56	99
2165.95	145
2166.34	155
2166.73	111
2167.11	153
2167.5	113
2167.89	109
2168.28	135
2168.67	129
2169.06	125
2169.45	129
2169.84	95
2170.23	129
2170.62	145
2171	97
2171.39	143
2171.78	93
2172.17	119
2172.56	123
2172.95	147
2173.34	117
2173.73	127
2174.11	107
2174.5	149
2174.89	137
2175.28	85
2175.67	163
2176.06	71
2176.45	161
2176.83	101
2177.22	159
2177.61	119
2178	129
2178.39	99
2178.78	151
2179.16	153
2179.55	73
2179.94	167
2180.33	67
2180.72	173
2181.1	109
2181.49	119
2181.88	129
2182.27	109
2182.66	117
2183.04	125
2183.43	121
2183.82	93
2184.21	131
2184.6	81
2184.98	143
2185.37	99
2185.76	115
2186.15	143
2186.53	93
2186.92	105
2187.31	127
2187.7	121
2188.08	131
2188.47	121
2188.86	117
2189.25	123
2189.63	113
2190.02	119
2190.41	141
2190.8	97
2191.18	109
2191.57	147
2191.96	123
2192.34	159
2192.73	81
2193.12	121
2193.51	113
2193.89	125
2194.28	117
2194.67	133
2195.06	97
2195.44	115
2195.83	139
2196.22	97
2196.6	163
2196.99	61
2197.38	177
2197.76	111
2198.15	131
2198.54	129
2198.92	113
2199.31	125
2199.7	103
2200.08	167
2200.47	87
2200.86	179
2201.24	61
2201.63	151
2202.02	115
2202.4	137
2202.79	121
2203.18	101
2203.56	125
2203.95	91
2204.34	129
2204.72	97
2205.11	143
2205.49	73
2205.88	137
2206.27	145
2206.65	113
2207.04	129
2207.43	93
2207.81	123
2208.2	115
2208.58	117
2208.97	139
2209.36	105
2209.74	91
2210.13	143
2210.51	125
2210.9	115
2211.29	129
2211.67	91
2212.06	137
2212.44	127
2212.83	111
2213.21	143
2213.6	87
2213.98	121
2214.37	143
2214.76	121
2215.14	115
2215.53	99
2215.91	105.036
2216.3	132.925
2216.69	124.451
2217.07	111.749
2217.46	167.883
2217.84	104.487
2218.23	135.04
2218.61	122.009
2219	121.277
2219.38	128.374
2219.77	78.0761
2220.15	129.001
2220.54	102.358
2220.92	150.449
2221.31	91.6778
2221.69	148.864
2222.08	86.2385
2222.46	144.989
2222.85	143.971
2223.23	114.579
2223.62	143.743
2224	78.4846
2224.39	127.273
2224.77	102.392
2225.16	140.721
2225.54	89.673
2225.93	140.136
2226.31	96.1675
2226.7	140.405
2227.08	122.725
2227.47	124.579
2227.85	147.167
2228.23	90.2419
2228.62	144.388
2229	119.881
2229.39	131.935
2229.77	108.503
2230.16	131.084
2230.54	123.701
2230.92	135.392
2231.31	125.383
2231.69	108.545
2232.08	135.939
2232.46	91.5296
2232.85	144.699
2233.23	120.642
2233.62	126.157
2234	123.452
2234.38	111.021
2234.77	130.48
2235.15	118.81
2235.54	126.411
2235.92	118.533
2236.3	118.826
2236.69	118.078
2237.07	127.227
2237.46	117.85
2237.84	116.633
2238.22	134.862
2238.61	102.839
2238.99	146.118
2239.37	119.955
2239.76	111.431
2240.14	141.142
2240.53	95.313
2240.91	132.88
2241.29	110.39
2241.68	136.021
2242.06	119.438
2242.44	123.567
2242.83	107.18
2243.21	137.729
2243.59	119.644
2243.98	103.74
2244.36	141.363
2244.74	88.7965
2245.13	137.214
2245.51	103.11
2245.89	141.358
2246.28	108.683
2246.66	121.467
2247.04	119.131
2247.43	147.512
2247.81	125.966
2248.19	115.733
2248.58	129.795
2248.96	95.7472
2249.34	140.903
2249.73	99.2114
2250.11	122.836
2250.49	134.255
2250.88	129.532
2251.26	120.625
2251.64	134.948
2252.02	129.07
2252.41	120.697
2252.79	107.548
2252.8	107
2253.18	113
2253.57	129
2253.96	109
2254.35	105
2254.74	137
2255.12	81
2255.51	117
2255.9	123
2256.29	111
2256.67	169
2257.06	67
2257.45	131
2257.84	129
2258.22	143
2258.61	103
2259	125
2259.39	89
2259.77	111
2260.16	147
2260.55	101
2260.94	185
2261.32	65
2261.71	123
2262.1	105
2262.48	129
2262.87	125
2263.26	133
2263.65	113
2264.03	123
2264.42	131
2264.81	93
2265.19	149
2265.58	65
2265.97	161
2266.35	93
2266.74	135
2267.13	133
2267.51	131
2267.9	101
2268.29	125
2268.67	139
2269.06	107
2269.45	149
2269.83	57
2270.22	167
2270.61	105
2270.99	121
2271.38	117
2271.77	99
2272.15	111
2272.54	129
2272.93	137
2273.31	107
2273.7	141
2274.08	91
2274.47	153
2274.86	109
2275.24	121
2275.63	133
2276.02	103
2276.4	123
2276.79	133
2277.17	109
2277.56	125
2277.95	117
2278.33	91
2278.72	135
2279.1	111
2279.49	103
2279.88	113
2280.26	91
2280.65	149
2281.03	151
2281.42	107
2281.8	155
2282.19	85
2282.58	129
2282.96	125
2283.35	137
2283.73	129
2284.12	103
2284.5	131
2284.89	133
2285.28	163
2285.66	83
2286.05	169
2286.43	91
2286.82	133
2287.2	133
2287.59	109
2287.97	115
2288.36	89
2288.74	133
2289.13	135
2289.51	149
2289.9	79
2290.28	157
2290.67	63
2291.05	169
2291.44	93
2291.82	123
2292.21	125
2292.59	77
2292.98	139
2293.36	111
2293.75	141
2294.13	61
2294.52	161
2294.9	81
2295.29	161
2295.67	91
2296.06	113
2296.44	139
2296.83	95
2297.21	157
2297.6	119
2297.98	145
2298.36	91
2298.75	141
2299.13	87
2299.52	151
2299.9	113
2300.29	107
2300.67	147
2301.06	81
2301.44	129
2301.82	121
2302.21	111
2302.59	125
2302.98	105
2303.36	107
2303.75	131
2304.13	93
2304.51	105
2304.9	127
2305.28	115
2305.67	117
2306.05	129
2306.44	127
2306.82	141
2307.2	99
2307.59	131
2307.97	141
2308.35	99
2308.74	141
2309.12	119
2309.51	125
2309.89	115
2310.27	153
2310.66	99
2311.04	147
2311.42	91
2311.81	143
2312.19	99
2312.57	97
2312.96	119
2313.34	107
2313.73	125
2314.11	101
2314.49	181
2314.88	97
2315.26	177
2315.64	47
2316.03	161
2316.41	123
2316.79	129
2317.18	147
2317.56	97
2317.94	153
2318.32	103
2318.71	161
2319.09	89
2319.47	133
2319.86	67
2320.24	157
2320.62	141
2321.01	115
2321.39	169
2321.77	89
2322.15	161
2322.54	115
2322.92	141
2323.3	121
2323.69	143
2324.07	101
2324.45	143
2324.83	119
2325.22	135
2325.6	135
2325.98	105
2326.36	129
2326.75	113
2327.13	125
2327.51	139
2327.89	95
2328.28	113
2328.66	155
2329.04	109
2329.42	139
2329.81	129
2330.19	117
2330.57	157
2330.95	149
2331.33	133
2331.72	167
2332.1	95
2332.48	115
2332.86	123
2333.24	121
2333.63	139
2334.01	77
2334.39	115
2334.77	121
2335.15	149
2335.54	97
2335.92	161
2336.3	67
2336.68	147
2337.06	125
2337.44	143
2337.83	139
2338.21	67
2338.59	153
2338.97	125
2339.35	155
2339.73	93
2340.12	163
2340.5	99
2340.88	137
2341.26	129
2341.64	105
2342.02	165
2342.41	67
2342.79	153
2343.17	121
2343.55	153
2343.93	117
2344.31	143
2344.69	103
2345.07	145
2345.45	137
2345.84	109
2346.22	159
2346.6	81
2346.98	149
2347.36	117
2347.74	125
2348.12	115
2348.5	113
2348.88	111
2349.26	145
2349.65	123
2350.03	123
2350.41	147
2350.79	83
2351.17	157
2351.55	119
2351.93	139
2352.31	133
2352.69	103
2353.07	125
2353.45	143
2353.83	111
2354.21	135
2354.59	119
2354.98	109
2355.35	125
2355.74	137
2356.12	109
2356.5	149
2356.88	103
2357.26	153
2357.64	159
2358.02	93
2358.4	163
2358.78	91
2359.16	157
2359.54	115
2359.92	157
2360.3	87
2360.68	133
2361.06	117
2361.44	133
2361.82	147
2362.2	75
2362.58	165
2362.96	69
2363.34	123
2363.72	101
2364.1	137
2364.48	107
2364.86	127
2365.24	125
2365.62	125
2366	137
2366.38	99
2366.75	185
2367.14	85
2367.51	169
2367.89	99
2368.27	159
2368.65	141
2369.03	147
2369.41	117
2369.79	141
2370.17	135
2370.55	105
2370.93	177
2371.31	63
2371.69	167
2372.07	95
2372.45	133
2372.83	137
2373.2	113
2373.58	125
2373.96	137
2374.34	143
2374.72	101
2375.1	149
2375.48	107
2375.86	175
2376.24	105
2376.61	125
2376.99	163
2377.37	99
2377.75	123
2378.13	129
2378.51	119
2378.89	133
2379.27	113
2379.65	133
2380.02	137
2380.4	105
2380.78	143
2381.16	151
2381.54	107
2381.92	109
2382.3	141
2382.67	121
2383.05	181
2383.43	99
2383.81	139
2384.19	121
2384.57	119
2384.94	121
2385.32	127
2385.7	127
2386.08	91
2386.46	141
2386.83	81
2387.21	185
2387.59	67
2387.97	153
2388.35	113
2388.73	125
2389.1	123
2389.48	121
2389.86	133
2390.24	111
2390.62	159
2390.99	113
2391.37	173
2391.75	75
2392.13	149
2392.5	97
2392.88	147
2393.26	165
2393.64	127
2394.01	123
2394.39	99
2394.77	135
2395.15	117
2395.52	165
2395.9	83
2396.28	165
2396.66	117
2397.04	137
2397.41	157
2397.79	97
2398.17	133
2398.54	109
2398.92	143
2399.3	127
2399.68	115
2400.05	103
2400.43	135
2400.81	147
2401.18	129
2401.56	139
2401.94	113
2402.32	123
2402.69	161
2403.07	121
2403.45	151
2403.82	101
2404.2	131
2404.58	139
2404.95	133
2405.33	141
2405.71	107
2406.09	129
2406.46	143
2406.84	149
2407.22	105
2407.59	149
2407.97	93
2408.34	153
2408.72	139
2409.1	129
2409.47	121
2409.85	103
2410.23	117
2410.6	131
2410.98	161
2411.36	97
2411.73	173
2412.11	69
2412.49	163
2412.86	111
2413.24	147
2413.61	141
2413.99	99
2414.37	131
2414.74	111
2415.12	147
2415.5	79
2415.87	169
2416.25	93
2416.62	175
2417	107
2417.37	135
2417.75	159
2418.13	79
2418.5	151
2418.88	117
2419.25	179
2419.63	109
2420.01	155
2420.38	111
2420.76	163
2421.13	129
2421.51	131
2421.88	167
2422.26	101
2422.64	125
2423.01	137
2423.39	133
2423.76	135
2424.14	123
2424.51	131
2424.89	145
2425.26	131
2425.64	149
2426.01	151
2426.39	113
2426.76	171
2427.14	147
2427.52	111
2427.89	149
2428.26	129
2428.64	137
2429.02	171
2429.39	117
2429.77	139
2430.14	143
2430.52	117
2430.89	133
2431.26	155
2431.64	131
2432.02	153
2432.39	119
2432.77	167
2433.14	139
2433.51	127
2433.89	153
2434.26	133
2434.64	133
2435.01	129
2435.39	163
2435.76	123
2436.14	201
2436.51	105
2436.89	155
2437.26	133
2437.63	123
2438.01	183
2438.38	89
2438.76	163
2439.13	117
2439.51	185
2439.88	133
2440.26	177
2440.63	97
2441	183
2441.38	155
2441.75	111
2442.13	193
2442.5	109
2442.87	189
2443.25	133
2443.62	183
2444	143
2444.37	193
2444.74	143
2445.12	173
2445.49	143
2445.87	165
2446.24	209
2446.61	117
2446.99	189
2447.36	157
2447.73	177
2448.11	165
2448.48	169
2448.86	127
2449.23	223
2449.6	167
2449.98	173
2450.35	179
2450.72	175
2451.1	201
2451.47	157
2451.84	161
2452.22	185
2452.59	165
2452.97	163
2453.34	213
2453.71	177
2454.08	189
2454.46	167
2454.83	161
2455.2	187
2455.58	181
2455.95	171
2456.32	213
2456.7	171
2457.07	161
2457.44	205
2457.82	153
2458.19	213
2458.56	151
2458.93	203
2459.31	173
2459.68	201
2460.05	169
2460.43	235
2460.8	157
2461.17	183
2461.54	201
2461.92	157
2462.29	223
2462.66	115
2463.03	207
2463.41	151
2463.78	191
2464.15	165
2464.52	185
2464.9	137
2465.27	187
2465.64	179
2466.01	137
2466.39	199
2466.76	97
2467.13	195
2467.5	155
2467.88	181
2468.25	163
2468.62	185
2468.99	139
2469.37	179
2469.74	167
2470.11	173
2470.48	195
2470.85	127
2471.22	195
2471.6	177
2471.97	169
2472.34	165
2472.71	149
2473.08	157
2473.46	191
2473.83	157
2474.2	149
2474.57	155
2474.94	137
2475.32	165
2475.69	169
2476.06	163
2476.43	183
2476.8	131
2477.17	163
2477.55	159
2477.92	131
2478.29	157
2478.66	129
2479.03	173
2479.4	159
2479.77	175
2480.15	117
2480.52	185
2480.89	131
2481.26	165
2481.63	185
2482	131
2482.37	175
2482.74	97
2483.12	191
2483.49	139
2483.86	191
2484.23	143
2484.6	179
2484.97	133
2485.34	155
2485.71	161
2486.08	111
2486.46	195
2486.83	99
2487.2	175
2487.57	133
2487.94	165
2488.31	133
2488.68	157
2489.05	129
2489.42	155
2489.79	165
2490.16	115
2490.53	185
2490.9	103
2491.27	177
2491.64	117
2492.01	177
2492.38	149
2492.76	147
2493.13	137
2493.5	163
2493.87	155
2494.24	167
2494.61	169
2494.98	113
2495.35	175
2495.72	133
2496.09	141
2496.46	159
2496.83	123
2497.2	123
2497.57	153
2497.94	147
2498.31	143
2498.68	129
2499.05	141
2499.42	151
2499.79	135
2500.16	111
2500.53	173
2500.9	109
2501.27	125
2501.64	165
2502.01	125
2502.38	183
2502.75	107
2503.12	157
2503.49	147
2503.86	139
2504.23	137
2504.6	145
2504.97	131
2505.34	135
2505.7	157
2506.07	113
2506.44	181
2506.81	81
2507.18	167
2507.55	127
2507.92	161
2508.29	137
2508.66	145
2509.03	129
2509.4	133
2509.77	153
2510.14	121
2510.5	185
2510.88	83
2511.24	171
2511.61	111
2511.98	157
2512.35	147
2512.72	143
2513.09	117
2513.46	125
2513.83	177
2514.2	105
2514.56	187
2514.93	89
2515.3	175
2515.67	141
2516.04	147
2516.41	165
2516.78	121
2517.15	141
2517.51	127
2517.88	153
2518.25	123
2518.62	155
2518.99	79
2519.36	173
2519.73	119
2520.09	117
2520.46	149
2520.83	115
2521.2	139
2521.57	143
2521.94	105
2522.3	137
2522.67	111
2523.04	113
2523.41	151
2523.78	119
2524.15	133
2524.51	147
2524.88	119
2525.25	131
2525.62	151
2525.98	123
2526.35	171
2526.72	111
2527.09	127
2527.46	177
2527.83	145
2528.19	133
2528.56	101
2528.93	117
2529.3	147
2529.66	149
2530.03	103
2530.4	159
2530.77	81
2531.13	155
2531.5	131
2531.87	127
2532.24	133
2532.61	105
2532.97	133
2533.34	125
2533.71	151
2534.07	105
2534.44	195
2534.81	87
2535.18	177
2535.54	133
2535.91	131
2536.28	161
2536.65	105
2537.01	151
2537.38	135
2537.75	161
2538.11	105
2538.48	167
2538.85	101
2539.22	159
2539.58	109
2539.95	125
2540.32	165
2540.68	91
2541.05	137
2541.42	137
2541.78	141
2542.15	113
2542.52	143
2542.89	113
2543.25	165
2543.62	113
2543.99	137
2544.35	145
2544.72	115
2545.08	113
2545.45	139
2545.82	101
2546.19	145
2546.55	119
2546.92	143
2547.28	147
2547.65	121
2548.02	149
2548.38	155
2548.75	117
2549.12	129
2549.48	135
2549.85	109
2550.21	169
2550.58	97
2550.95	157
2551.31	127
2551.68	135
2552.05	127
2552.41	129
2552.78	135
2553.14	101
2553.51	149
2553.88	91
2554.24	183
2554.61	61
2554.97	163
2555.34	127
2555.71	143
2556.07	131
2556.44	115
2556.8	153
2557.17	109
2557.53	143
2557.9	115
2558.27	161
2558.63	61
2559	177
2559.36	129
2559.73	147
2560.09	153
2560.46	109
2560.82	149
2561.19	117
2561.55	155
2561.92	123
2562.29	169
2562.65	97
2563.02	159
2563.38	131
2563.75	121
2564.11	139
2564.48	115
2564.84	137
2565.21	127
2565.57	141.009
2565.94	138.541
2566.3	123.615
2566.67	116.236
2567.03	151.635
2567.4	122.9
2567.76	136.395
2568.13	154.532
2568.49	120.843
2568.86	142.085
2569.22	155.323
2569.59	118.635
2569.95	142.913
2570.32	107.744
2570.68	122.126
2571.05	144.65
2571.41	129.304
2571.78	136.607
2572.14	121.787
2572.51	124.788
2572.87	149.678
2573.23	154.33
2573.6	122.02
2573.96	172.211
2574.33	97.513
2574.69	144.78
2575.06	130.481
2575.42	146.479
2575.79	149.817
2576.15	123.036
2576.51	130.519
2576.88	122.509
2577.24	145.385
2577.61	101.243
2577.97	164.073
2578.34	100.794
2578.7	161.787
2579.06	135.558
2579.43	144.237
2579.79	154.518
2580.16	106.214
2580.52	135.23
2580.88	135.493
2581.25	152.851
2581.61	116.94
2581.98	152.194
2582.34	104.619
2582.7	151.889
2583.07	142.667
2583.43	141.413
2583.8	148.404
2584.16	121.059
2584.52	136.922
2584.89	129.771
2585.25	143.466
2585.61	135.567
2585.98	149.568
2586.34	115.75
2586.7	137.023
2587.07	137.517
2587.43	137.006
2587.8	136.746
2588.16	133.241
2588.52	139.449
2588.88	130.562
2589.25	131.376
2589.61	129.197
2589.97	122.161
2590.34	130.872
2590.7	125.78
2591.06	141.204
2591.43	145.446
2591.79	137.535
2592.15	168.31
2592.52	115.503
2592.88	151.656
2593.24	132.127
2593.61	155.51
2593.97	143.741
2594.33	135.397
2594.7	131.643
2595.06	133.825
2595.42	159.464
2595.78	119.288
2596.15	179.965
2596.51	105.552
2596.87	161.492
2597.24	121.789
2597.6	151.989
2597.96	119.459
2598.32	142.433
2598.69	145.927
2599.05	138.182
2599.41	165.518
2599.78	114.62
2600.14	177.118
2600.5	122.898
2600.86	169.069
2600.95	189
2601.31	111
2601.68	175
2602.05	155
2602.42	141
2602.78	155
2603.15	137
2603.52	193
2603.89	101
2604.25	193
2604.62	113
2604.99	183
2605.35	137
2605.72	153
2606.09	157
2606.46	105
2606.82	151
2607.19	149
2607.56	175
2607.92	115
2608.29	171
2608.66	93
2609.03	161
2609.39	129
2609.76	151
2610.13	179
2610.49	153
2610.86	165
2611.23	175
2611.59	161
2611.96	171
2612.33	145
2612.69	135
2613.06	179
2613.43	123
2613.79	155
2614.16	179
2614.53	131
2614.89	161
2615.26	181
2615.62	171
2615.99	191
2616.36	149
2616.72	163
2617.09	187
2617.46	167
2617.82	157
2618.19	145
2618.56	133
2618.92	131
2619.29	175
2619.65	151
2620.02	195
2620.39	97
2620.75	197
2621.12	159
2621.48	159
2621.85	165
2622.22	159
2622.58	163
2622.95	173
2623.31	195
2623.68	157
2624.04	211
2624.41	125
2624.78	199
2625.14	189
2625.51	169
2625.87	195
2626.24	173
2626.6	175
2626.97	179
2627.34	243
2627.7	159
2628.07	233
2628.43	145
2628.8	213
2629.16	195
2629.53	195
2629.9	203
2630.26	175
2630.63	191
2630.99	189
2631.36	221
2631.72	165
2632.09	235
2632.45	165
2632.82	251
2633.18	193
2633.55	213
2633.91	225
2634.28	193
2634.64	219
2635.01	237
2635.37	229
2635.74	221
2636.1	233
2636.47	177
2636.83	239
2637.2	223
2637.56	227
2637.93	237
2638.29	193
2638.66	223
2639.02	229
2639.39	245
2639.75	263
2640.12	209
2640.48	229
2640.84	239
2641.21	257
2641.57	233
2641.94	213
2642.3	257
2642.67	291
2643.03	303
2643.4	205
2643.76	283
2644.13	211
2644.49	277
2644.85	277
2645.22	279
2645.58	295
2645.95	265
2646.31	301
2646.68	293
2647.04	309
2647.4	293
2647.77	371
2648.13	245
2648.5	335
2648.86	329
2649.22	325
2649.59	325
2649.95	331
2650.32	335
2650.68	335
2651.04	375
2651.41	323
2651.77	395
2652.14	307
2652.5	423
2652.86	335
2653.23	391
2653.59	399
2653.95	357
2654.32	415
2654.68	385
2655.05	427
2655.41	375
2655.77	463
2656.14	417
2656.5	443
2656.86	451
2657.23	491
2657.59	483
2657.95	411
2658.32	499
2658.68	479
2659.04	509
2659.41	459
2659.77	519
2660.13	499
2660.5	495
2660.86	527
2661.22	549
2661.59	589
2661.95	509
2662.31	567
2662.68	603
2663.04	575
2663.4	621
2663.76	611
2664.13	629
2664.49	673
2664.85	619
2665.22	659
2665.58	669
2665.94	643
2666.3	647
2666.67	717
2667.03	683
2667.39	785
2667.76	735
2668.12	737
2668.48	775
2668.84	799
2669.21	751
2669.57	755
2669.93	829
2670.29	813
2670.66	853
2671.02	863
2671.38	901
2671.74	803
2672.11	929
2672.47	973
2672.83	935
2673.19	945
2673.56	867
2673.92	1007
2674.28	979
2674.64	997
2675	921
2675.37	1029
2675.73	967
2676.09	1085
2676.45	983
2676.81	1031
2677.18	1055
2677.54	1085
2677.9	1109
2678.26	1015
2678.62	1117
2678.99	1087
2679.35	1175
2679.71	1085
2680.07	1077
2680.43	1099
2680.8	1115
2681.16	1199
2681.52	1065
2681.88	1125
2682.24	1117
2682.6	1101
2682.97	1075
2683.33	1095
2683.69	1119
2684.05	1141
2684.41	1111
2684.77	1127
2685.13	1125
2685.5	1035
2685.86	1119
2686.22	1097
2686.58	1113
2686.94	1149
2687.3	1077
2687.66	1055
2688.03	1065
2688.39	1065
2688.75	1003
2689.11	1029
2689.47	999
2689.83	1069
2690.19	1043
2690.55	993
2690.91	1021
2691.28	949
2691.64	967
2692	955
2692.36	941
2692.72	891
2693.08	829
2693.44	849
2693.8	887
2694.16	901
2694.52	829
2694.88	877
2695.24	749
2695.61	815
2695.97	797
2696.33	787
2696.69	759
2697.05	735
2697.41	757
2697.77	747
2698.13	741
2698.49	643
2698.85	749
2699.21	611
2699.57	713
2699.93	697
2700.29	631
2700.65	657
2701.01	581
2701.37	661
2701.73	581
2702.09	605
2702.45	519
2702.81	633
2703.18	545
2703.53	601
2703.89	517
2704.25	499
2704.62	521
2704.98	453
2705.33	531
2705.69	533
2706.06	551
2706.42	447
2706.78	515
2707.13	399
2707.49	469
2707.85	369
2708.22	433
2708.57	467
2708.93	395
2709.29	429
2709.65	463
2710.01	415
2710.37	391
2710.73	389
2711.09	397
2711.45	391
2711.81	371
2712.17	377
2712.53	379
2712.89	337
2713.25	365
2713.61	335
2713.97	347
2714.33	387
2714.69	305
2715.05	349
2715.41	309
2715.76	295
2716.12	341
2716.48	323
2716.84	311
2717.2	295
2717.56	335
2717.92	275
2718.28	351
2718.64	203
2719	339
2719.35	291
2719.71	267
2720.07	307
2720.43	291
2720.79	279
2721.15	249
2721.51	289
2721.87	247
2722.23	317
2722.59	195
2722.94	305
2723.3	241
2723.66	249
2724.02	279
2724.38	255
2724.74	251
2725.1	207
2725.46	269
2725.81	227
2726.17	279
2726.53	173
2726.89	263
2727.25	209
2727.61	243
2727.96	241
2728.32	207
2728.68	239
2729.04	211
2729.4	233
2729.75	201
2730.11	245
2730.47	149
2730.83	239
2731.19	225
2731.55	225
2731.91	223
2732.26	165
2732.62	213
2732.98	217
2733.34	199
2733.69	203
2734.05	217
2734.41	159
2734.77	227
2735.13	211
2735.48	191
2735.84	201
2736.2	193
2736.56	211
2736.91	203
2737.27	189
2737.63	201
2737.99	187
2738.35	149
2738.7	223
2739.06	179
2739.42	195
2739.78	179
2740.13	163
2740.49	175
2740.85	199
2741.21	147
2741.56	221
2741.92	157
2742.28	175
2742.64	189
2742.99	195
2743.35	169
2743.71	175
2744.06	177
2744.42	181
2744.78	197
2745.14	137
2745.49	211
2745.85	133
2746.21	199
2746.57	157
2746.92	195
2747.28	187
2747.64	149
2747.99	165
2748.35	165
2748.71	183
2749.06	113
2749.42	227
2749.78	121
2750.13	189
2750.49	167
2750.85	163
2751.2	187
2751.56	125
2751.92	193
2752.27	147
2752.63	169
2752.99	99
2753.34	195
2753.7	125
2754.06	175
2754.41	157
2754.77	153
2755.13	179
2755.48	121
2755.84	179
2756.2	153
2756.55	169
2756.91	115
2757.26	153
2757.62	137
2757.98	177
2758.33	137
2758.69	157
2759.04	165
2759.4	109
2759.76	151
2760.11	159
2760.47	147
2760.83	127
2761.18	143
2761.54	125
2761.89	179
2762.25	129
2762.61	163
2762.96	179
2763.32	131
2763.67	153
2764.03	163
2764.38	127
2764.74	159
2765.1	133
2765.45	153
2765.81	153
2766.16	127
2766.52	141
2766.88	151
2767.23	127
2767.59	151
2767.94	165
2768.3	99
2768.65	207
2769.01	103
2769.36	155
2769.72	135
2770.07	131
2770.43	155
2770.78	133
2771.14	145
2771.49	121
2771.85	187
2772.21	133
2772.56	195
2772.92	109
2773.27	169
2773.63	123
2773.98	121
2774.34	171
2774.69	123
2775.05	179
2775.4	133
2775.76	169
2776.11	121
2776.47	189
2776.82	95
2777.18	177
2777.53	135
2777.89	161
2778.24	161
2778.59	105
2778.95	149
2779.3	115
2779.66	153
2780.01	115
2780.37	153
2780.72	87
2781.08	171
2781.43	135
2781.79	141
2782.14	179
2782.49	139
2782.85	163
2783.2	129
2783.56	143
2783.91	149
2784.27	133
2784.62	97
2784.98	175
2785.33	143
2785.68	119
2786.04	163
2786.39	111
2786.75	151
2787.1	149
2787.46	125
2787.81	165
2788.16	133
2788.52	109
2788.87	163
2789.22	151
2789.58	141
2789.93	129
2790.29	123
2790.64	133
2790.99	171
2791.35	93
2791.7	163
2792.06	87
2792.41	133
2792.76	149
2793.12	145
2793.47	145
2793.82	115
2794.18	121
2794.53	159
2794.88	157
2795.24	105
2795.59	187
2795.95	109
2796.3	165
2796.65	143
2797.01	143
2797.36	147
2797.71	115
2798.07	141
2798.42	139
2798.77	161
2799.13	91
2799.48	171
2799.83	83
2800.19	181
2800.54	99
2800.89	145
2801.24	161
2801.6	81
2801.95	137
2802.3	117
2802.66	167
2803.01	93
2803.36	147
2803.72	83
2804.07	163
2804.42	121
2804.77	127
2805.13	149
2805.48	123
2805.83	147
2806.19	137
2806.54	139
2806.89	129
2807.24	151
2807.6	123
2807.95	167
2808.3	109
2808.65	135
2809.01	161
2809.36	119
2809.71	169
2810.06	145
2810.42	107
2810.77	147
2811.12	121
2811.47	141
2811.83	171
2812.18	99
2812.53	145
2812.88	141
2813.24	109
2813.59	127
2813.94	141
2814.29	115
2814.64	157
2815	93
2815.35	131
2815.7	133
2816.05	129
2816.4	147
2816.76	129
2817.11	117
2817.46	133
2817.81	167
2818.16	95
2818.52	191
2818.87	95
2819.22	167
2819.57	123
2819.92	129
2820.28	145
2820.63	123
2820.98	145
2821.33	101
2821.68	163
2822.03	103
2822.39	185
2822.74	87
2823.09	157
2823.44	123
2823.79	125
2824.14	157
2824.49	93
2824.85	143
2825.2	115
2825.55	171
2825.9	111
2826.25	159
2826.6	93
2826.95	157
2827.31	135
2827.66	145
2828.01	175
2828.36	109
2828.71	153
2829.06	125
2829.41	149
2829.76	119
2830.11	147
2830.46	79
2830.82	195
2831.17	137
2831.52	137
2831.87	153
2832.22	109
2832.57	157
2832.92	125
2833.27	133
2833.62	125
2833.97	117
2834.32	103
2834.68	161
2835.03	115
2835.38	129
2835.73	147
2836.08	125
2836.43	147
2836.78	111
2837.13	123
2837.48	159
2837.83	113
2838.18	121
2838.53	141
2838.88	151
2839.23	153
2839.58	119
2839.93	127
2840.28	129
2840.63	143
2840.98	105
2841.33	175
2841.68	67
2842.03	143
2842.38	145
2842.73	147
2843.08	151
2843.43	87
2843.78	147
2844.13	123
2844.48	165
2844.83	79
2845.18	175
2845.53	87
2845.88	155
2846.23	155
2846.58	111
2846.93	161
2847.28	77
2847.63	147
2847.98	111
2848.33	141
2848.68	91
2849.03	167
2849.38	89
2849.73	167
2850.08	127
2850.43	133
2850.78	153
2851.13	85
2851.48	149
2851.83	113
2852.18	153
2852.53	85
2852.88	169
2853.23	93
2853.57	165
2853.92	129
2854.27	129
2854.62	165
2854.97	91
2855.32	165
2855.67	121
2856.02	165
2856.37	97
2856.72	139
2857.07	107
2857.42	139
2857.76	125
2858.11	121
2858.46	153
2858.81	99
2859.16	137
2859.51	139
2859.86	153
2860.21	165
2860.56	123
2860.91	131
2861.25	137
2861.6	111
2861.95	153
2862.3	131
2862.65	117
2863	127
2863.35	147
2863.69	111
2864.04	135
2864.39	85
2864.74	131
2865.09	121
2865.44	101
2865.78	135
2866.13	115
2866.48	139
2866.83	109
2867.18	179
2867.53	121
2867.88	175
2868.22	89
2868.57	163
2868.92	155
2869.27	127
2869.62	159
2869.96	113
2870.31	141
2870.66	101
2871.01	151
2871.36	79
2871.7	171
2872.05	85
2872.4	165
2872.75	121
2873.1	121
2873.44	169
2873.79	89
2874.14	153
2874.49	89
2874.84	157
2875.18	107
2875.53	151
2875.88	75
2876.23	185
2876.57	117
2876.92	121
2877.27	161
2877.62	77
2877.97	147
2878.31	105
2878.66	139
2879.01	135
2879.36	127
2879.7	91
2880.05	153
2880.4	139
2880.74	135
2881.09	155
2881.44	107
2881.79	143
2882.13	117
2882.48	127
2882.83	149
2883.18	105
2883.52	93
2883.87	149
2884.22	119
2884.56	149
2884.91	139
2885.26	117
2885.61	137
2885.95	117
2886.3	117
2886.65	157
2886.99	97
2887.34	113
2887.69	151
2888.03	125
2888.38	145
2888.73	117
2889.07	121
2889.42	117
2889.77	143
2890.11	103
2890.46	181
2890.81	89
2891.15	143
2891.5	131
2891.85	123
2892.19	133
2892.54	87
2892.89	149
2893.23	137
2893.58	159
2893.93	95
2894.27	163
2894.62	89
2894.96	151
2895.31	147
2895.66	117
2896	157
2896.35	73.38
2896.7	158.29
2897.04	111.078
2897.39	148.471
2897.73	96.2639
2898.08	163.658
2898.43	101.249
2898.77	141.834
2899.12	134.783
2899.46	130.164
2899.81	160.802
2900.16	82.6316
2900.5	151.593
2900.85	119.109
2901.19	153.932
2901.54	96.4496
2901.88	140.107
2902.23	121.43
2902.58	143.1
2902.92	129.441
2903.27	128.079
2903.61	146.219
2903.96	80.4623
2904.31	150.997
2904.65	126.234
2905	131.861
2905.34	100.919
2905.69	114.129
2906.03	113.441
2906.38	140.506
2906.72	126.178
2907.07	128.991
2907.42	138.11
2907.76	106.033
2908.11	122.501
2908.45	132.795
2908.8	126.592
2909.14	123.24
2909.49	113.93
2909.83	127.42
2910.18	127.387
2910.52	116.934
2910.87	136.321
2911.21	118.262
2911.56	141.23
2911.9	119.359
2912.25	142.259
2912.59	111.808
2912.94	126.193
2913.28	123.337
2913.63	131.866
2913.97	146.764
2914.32	102.029
2914.66	136.97
2915.01	108.112
2915.35	159.577
2915.7	107.291
2916.04	138.105
2916.39	117.86
2916.73	140.515
2917.08	119.689
2917.42	122.239
2917.77	124.343
2918.11	113.212
2918.46	151.924
2918.8	112.661
2919.15	142.061
2919.49	108.629
2919.83	134.011
2920.18	128.957
2920.52	129.924
2920.87	127.18
2921.21	130.075
2921.56	127.057
2921.9	122.515
2922.24	146.29
2922.59	119.291
2922.93	130.69
2923.28	112.708
2923.62	124.651
2923.97	141.625
2924.31	132.848
2924.65	124.663
2925	135.123
2925.34	131.537
2925.69	134.661
2926.03	146.512
2926.38	118
2926.72	131.534
2927.06	118.09
2927.41	126.582
2927.75	147.132
2928.09	132.568
2928.44	134.983
2928.78	132.477
2929.13	114.467
2929.47	130.577
2929.81	137.906
2930.16	128.247
2930.5	154.515
2930.79	99
2931.14	109
2931.49	153
2931.84	151
2932.19	113
2932.54	127
2932.88	115
2933.23	149
2933.58	143
2933.93	91
2934.28	159
2934.63	105
2934.97	151
2935.32	105
2935.67	155
2936.02	113
2936.37	131
2936.71	131
2937.06	135
2937.41	135
2937.76	89
2938.11	185
2938.46	77
2938.8	159
2939.15	105
2939.5	139
2939.85	127
2940.19	93
2940.54	127
2940.89	121
2941.24	147
2941.59	85
2941.93	173
2942.28	83
2942.63	163
2942.98	115
2943.32	151
2943.67	137
2944.02	107
2944.37	117
2944.72	123
2945.06	149
2945.41	95
2945.76	177
2946.11	87
2946.45	163
2946.8	97
2947.15	139
2947.49	129
2947.84	117
2948.19	139
2948.54	133
2948.88	121
2949.23	97
2949.58	165
2949.93	91
2950.27	169
2950.62	105
2950.97	131
2951.31	155
2951.66	107
2952.01	111
2952.35	133
2952.7	121
2953.05	113
2953.4	131
2953.74	119
2954.09	157
2954.44	103
2954.78	127
2955.13	155
2955.48	97
2955.82	143
2956.17	145
2956.52	123
2956.86	155
2957.21	97
2957.56	137
2957.9	129
2958.25	117
2958.6	117
2958.94	143
2959.29	107
2959.64	109
2959.98	153
2960.33	103
2960.68	161
2961.02	83
2961.37	153
2961.72	119
2962.06	151
2962.41	135
2962.76	133
2963.1	111
2963.45	117
2963.79	147
2964.14	117
2964.49	177
2964.83	69
2965.18	159
2965.52	119
2965.87	131
2966.22	133
2966.56	133
2966.91	109
2967.25	119
2967.6	137
2967.95	111
2968.29	183
2968.64	61
2968.98	173
2969.33	111
2969.68	147
2970.02	121
2970.37	117
2970.71	109
2971.06	129
2971.4	141
2971.75	113
2972.1	165
2972.44	65
2972.79	167
2973.13	115
2973.48	139
2973.82	123
2974.17	109
2974.51	127
2974.86	133
2975.21	121
2975.55	125
2975.9	151
2976.24	83
2976.59	151
2976.93	111
2977.28	131
2977.62	131
2977.97	105
2978.31	123
2978.66	143
2979	117
2979.35	145
2979.69	113
2980.04	113
2980.38	161
2980.73	125
2981.07	113
2981.42	141
2981.76	109
2982.11	121
2982.45	149
2982.8	115
2983.14	147
2983.49	103
2983.83	129
2984.18	127
2984.52	139
2984.87	99
2985.21	137
2985.56	85
2985.9	145
2986.25	129
2986.59	87
2986.94	165
2987.28	81
2987.62	149
2987.97	115
2988.31	153
2988.66	109
2989	129
2989.35	111
2989.69	131
2990.03	137
2990.38	73
2990.72	189
2991.07	69
2991.41	155
2991.76	111
2992.1	139
2992.44	125
2992.79	119
2993.13	115
2993.48	135
2993.82	153
2994.17	83
2994.51	167
2994.85	73
2995.2	143
2995.54	93
2995.89	141
2996.23	145
2996.57	137
2996.92	125
2997.26	131
2997.6	125
2997.95	101
2998.29	173
2998.64	99
2998.98	155
2999.32	77
2999.67	137
