#Acq. time (s)=	30
#Accumulations=	1
#Range (cm-¹)=	1050...3000 (30 s) 
#Windows=	6
#Auto scanning=	Off
#Autofocus=	Off
#AutoExposure=	Off
#Spike filter=	Off
#Delay time (s)=	0
#Binning=	1
#Readout mode=	Signal
#DeNoise=	Off
#ICS correction=	Off
#Dark correction=	Off
#Inst. Process=	Off
#Detector Gain=	High Sensitivity
#Detector ADC=	45 kHz       
#Detector temperature (°C)=	-60.1
#Instrument=	LabRAM
#Detector=	Syncerity
#Objective=	x50LWD
#Grating=	1800
#Filter=	25%
#Laser (nm)=	532
#Hole=	100
#E-Cal_Neon=	0
#StageXY=	Marzhauser
#StageZ=	Marzhauser
#X (µm)=	0
#Y (µm)=	0
#Z (µm)=	-1678.85
#Spectral res.(cm-¹)=	1.9
#Full time(mm:ss)=	3:08
#AC=	Not calibrated
#Project=	
#Sample=	
#Site=	
#Title=	Spot 1 400K
#Remark=	
#Date=	19.02.2026 11:20
#Acquired=	19.02.2026 11:20:34
#Edit:Spike=	19.02.2026 11:23:27
#AxisType[0]=Intens
#AxisUnit[0]=Cnt
#AxisType[1]=Spectr
#AxisUnit[1]=1/cm
1050.13	143
1050.59	139
1051.05	163
1051.51	83
1051.97	161
1052.44	121
1052.9	135
1053.36	133
1053.82	111
1054.28	159
1054.74	153
1055.2	137
1055.67	149
1056.13	113
1056.59	125
1057.05	135
1057.51	149
1057.97	119
1058.43	119
1058.89	103
1059.36	135
1059.82	147
1060.28	89
1060.74	193
1061.2	69
1061.66	167
1062.12	133
1062.58	193
1063.04	133
1063.5	97
1063.96	135
1064.43	127
1064.89	179
1065.35	81
1065.81	199
1066.27	123
1066.73	165
1067.19	127
1067.65	145
1068.11	159
1068.57	93
1069.03	147
1069.49	137
1069.95	145
1070.41	115
1070.87	151
1071.33	109
1071.79	185
1072.25	95
1072.71	131
1073.17	141
1073.63	95
1074.09	131
1074.55	131
1075.01	125
1075.47	155
1075.93	107
1076.39	113
1076.85	159
1077.31	125
1077.77	129
1078.23	141
1078.69	123
1079.15	137
1079.61	187
1080.07	115
1080.53	177
1080.99	75
1081.45	151
1081.91	125
1082.37	127
1082.83	141
1083.29	119
1083.75	137
1084.21	117
1084.66	157
1085.12	99
1085.58	187
1086.04	75
1086.5	167
1086.96	113
1087.42	99
1087.88	147
1088.34	117
1088.8	161
1089.25	105
1089.71	161
1090.17	119
1090.63	163
1091.09	97
1091.55	167
1092.01	135
1092.47	127
1092.92	179
1093.38	101
1093.84	157
1094.3	131
1094.76	149
1095.22	165
1095.68	129
1096.13	99
1096.59	161
1097.05	125
1097.51	137
1097.97	127
1098.43	121
1098.88	143
1099.34	125
1099.8	113
1100.26	143
1100.72	113
1101.17	111
1101.63	147
1102.09	113
1102.55	187
1103.01	97
1103.46	141
1103.92	141
1104.38	149
1104.84	113
1105.29	159
1105.75	93
1106.21	137
1106.67	149
1107.12	111
1107.58	173
1108.04	79
1108.5	183
1108.95	123
1109.41	179
1109.87	127
1110.33	145
1110.78	113
1111.24	133
1111.7	151
1112.16	101
1112.61	165
1113.07	59
1113.53	163
1113.98	121
1114.44	149
1114.9	135
1115.35	99
1115.81	185
1116.27	145
1116.72	135
1117.18	153
1117.64	141
1118.1	95
1118.55	157
1119.01	129
1119.47	125
1119.92	125
1120.38	83
1120.84	153
1121.29	157
1121.75	119
1122.2	181
1122.66	109
1123.12	123
1123.57	159
1124.03	157
1124.49	147
1124.94	123
1125.4	131
1125.86	133
1126.31	153
1126.77	115
1127.22	169
1127.68	85
1128.14	137
1128.59	141
1129.05	133
1129.5	149
1129.96	115
1130.41	147
1130.87	111
1131.33	141
1131.78	73
1132.24	181
1132.69	87
1133.15	165
1133.61	141
1134.06	149
1134.52	155
1134.97	87
1135.43	157
1135.88	123
1136.34	147
1136.79	91
1137.25	165
1137.7	95
1138.16	171
1138.61	117
1139.07	117
1139.52	163
1139.98	95
1140.43	139
1140.89	123
1141.34	155
1141.8	109
1142.25	135
1142.71	125
1143.16	153
1143.62	117
1144.07	117
1144.53	129
1144.98	109
1145.44	139
1145.89	175
1146.35	127
1146.8	153
1147.26	95
1147.71	157
1148.16	135
1148.62	123
1149.07	149
1149.53	115
1149.98	145
1150.44	107
1150.89	171
1151.35	95
1151.8	163
1152.25	91
1152.71	137
1153.16	117
1153.62	107
1154.07	161
1154.52	97
1154.98	169
1155.43	95
1155.89	147
1156.34	105
1156.79	155
1157.25	111
1157.7	153
1158.16	137
1158.61	121
1159.06	171
1159.52	87
1159.97	165
1160.42	89
1160.88	127
1161.33	113
1161.78	113
1162.24	99
1162.69	139
1163.14	121
1163.6	141
1164.05	157
1164.5	105
1164.96	147
1165.41	107
1165.86	123
1166.32	143
1166.77	95
1167.22	123
1167.68	151
1168.13	127
1168.58	161
1169.04	111
1169.49	141
1169.94	119
1170.39	141
1170.85	117
1171.3	173
1171.75	121
1172.2	117
1172.66	147
1173.11	103
1173.56	177
1174.01	65
1174.47	169
1174.92	101
1175.37	147
1175.82	129
1176.28	129
1176.73	101
1177.18	113
1177.63	143
1178.09	99
1178.54	181
1178.99	59
1179.44	155
1179.89	131
1180.35	149
1180.8	133
1181.25	121
1181.7	115
1182.15	137
1182.61	137
1183.06	117
1183.51	155
1183.96	79
1184.41	175
1184.87	137
1185.32	137
1185.77	135
1186.22	107
1186.67	125
1187.12	139
1187.58	129
1188.03	147
1188.48	119
1188.93	101
1189.38	151
1189.83	105
1190.28	111
1190.73	141
1191.19	121
1191.64	123
1192.09	143
1192.54	109
1192.99	175
1193.44	83
1193.89	175
1194.34	123
1194.8	137
1195.25	135
1195.7	91
1196.15	141
1196.6	121
1197.05	149
1197.5	73
1197.95	185
1198.4	91
1198.85	165
1199.3	131
1199.75	129
1200.2	149
1200.66	87
1201.11	153
1201.56	111
1202.01	159
1202.46	67
1202.91	155
1203.36	109
1203.81	143
1204.26	119
1204.71	111
1205.16	157
1205.61	99
1206.06	151
1206.51	129
1206.96	117
1207.41	113
1207.86	113
1208.31	133
1208.76	139
1209.21	115
1209.66	133
1210.11	137
1210.56	111
1211.01	133
1211.46	131
1211.91	125
1212.36	151
1212.81	99
1213.26	135
1213.71	147
1214.16	119
1214.61	157
1215.05	111
1215.51	129
1215.95	107
1216.4	149
1216.85	103
1217.3	157
1217.75	93
1218.2	165
1218.65	147
1219.1	103
1219.55	165
1220	85
1220.45	145
1220.9	111
1221.34	149
1221.79	113
1222.24	135
1222.69	113
1223.14	145
1223.59	147
1224.04	77
1224.49	193
1224.94	77
1225.38	165
1225.83	91
1226.28	145
1226.73	153
1227.18	111
1227.63	119
1228.07	131
1228.52	131
1228.97	111
1229.42	147
1229.87	91
1230.32	153
1230.76	105
1231.21	111
1231.66	145
1232.11	105
1232.56	121
1233.01	151
1233.45	113
1233.9	153
1234.35	105
1234.8	133
1235.25	163
1235.69	153
1236.14	141
1236.59	155
1237.04	117
1237.49	115
1237.93	157
1238.38	137
1238.83	183
1239.28	85
1239.72	153
1240.17	101
1240.62	147
1241.07	135
1241.51	129
1241.96	123
1242.41	115
1242.86	143
1243.3	111
1243.75	173
1244.2	73
1244.65	173
1245.09	103
1245.54	139
1245.99	137
1246.44	105
1246.88	121
1247.33	119
1247.78	167
1248.22	113
1248.67	175
1249.12	63
1249.56	171
1250.01	141
1250.46	149
1250.9	141
1251.35	117
1251.8	135
1252.24	143
1252.69	115
1253.14	153
1253.58	97
1254.03	125
1254.48	143
1254.92	149
1255.37	127
1255.82	139
1256.26	123
1256.71	145
1257.15	155
1257.6	89
1258.05	191
1258.49	95
1258.94	155
1259.39	117
1259.83	137
1260.28	155
1260.72	97
1261.17	163
1261.62	127
1262.06	153
1262.51	85
1262.95	195
1263.4	83
1263.85	173
1264.29	121
1264.74	131
1265.18	143
1265.63	105
1266.07	161
1266.52	133
1266.97	155
1267.41	119
1267.86	179
1268.3	117
1268.75	155
1269.19	113
1269.64	135
1270.08	139
1270.53	107
1270.97	147
1271.42	137
1271.86	139
1272.31	125
1272.76	121
1273.2	125
1273.64	151
1274.09	125
1274.53	131
1274.98	143
1275.42	131
1275.87	133
1276.31	131
1276.76	93
1277.2	175
1277.65	101
1278.09	167
1278.54	151
1278.98	93
1279.43	159
1279.87	115
1280.32	151
1280.76	113
1281.21	155
1281.65	103
1282.09	185
1282.54	79
1282.98	161
1283.43	135
1283.87	117
1284.32	177
1284.76	73
1285.21	153
1285.65	117
1286.09	137
1286.54	131
1286.98	145
1287.42	133
1287.87	169
1288.31	141
1288.76	111
1289.2	165
1289.64	103
1290.09	159
1290.53	111
1290.98	141
1291.42	155
1291.86	127
1292.31	135
1292.75	147
1293.19	127
1293.64	145
1294.08	111
1294.53	109
1294.97	159
1295.41	117
1295.85	141
1296.3	163
1296.74	107
1297.19	105
1297.63	157
1298.07	137
1298.51	153
1298.96	93
1299.4	137
1299.84	113
1300.29	135
1300.73	131
1301.17	161
1301.62	113
1302.06	143
1302.5	167
1302.94	119
1303.39	173
1303.83	57
1304.27	165
1304.72	131
1305.16	163
1305.6	127
1306.04	151
1306.49	119
1306.93	131
1307.37	165
1307.81	117
1308.26	175
1308.7	67
1309.14	205
1309.58	149
1310.03	165
1310.47	157
1310.91	119
1311.35	167
1311.8	159
1312.24	147
1312.68	117
1313.12	153
1313.56	89
1314	153
1314.45	127
1314.89	151
1315.33	147
1315.77	119
1316.22	147
1316.66	159
1317.1	125
1317.54	183
1317.98	123
1318.43	125
1318.87	149
1319.31	131
1319.75	141
1320.19	125
1320.63	113
1321.07	149
1321.51	155
1321.96	107
1322.4	183
1322.84	81
1323.28	149
1323.72	135
1324.16	145
1324.6	163
1325.05	139
1325.49	169
1325.93	161
1326.37	181
1326.81	115
1327.25	195
1327.69	101
1328.13	185
1328.57	129
1329.02	159
1329.45	155
1329.9	93
1330.34	185
1330.78	145
1331.22	179
1331.66	109
1332.1	187
1332.54	125
1332.98	197
1333.42	149
1333.86	171
1334.3	175
1334.74	145
1335.18	197
1335.62	165
1336.07	165
1336.5	165
1336.95	145
1337.39	159
1337.83	219
1338.27	141
1338.71	183
1339.15	189
1339.59	159
1340.03	181
1340.47	197
1340.91	135
1341.35	209
1341.79	135
1342.23	205
1342.67	177
1343.11	125
1343.55	215
1343.99	135
1344.43	191
1344.86	139
1345.31	191
1345.74	143
1346.18	217
1346.62	117
1347.06	193
1347.5	169
1347.94	143
1348.38	203
1348.82	119
1349.26	199
1349.7	149
1350.14	197
1350.58	167
1351.02	177
1351.46	127
1351.9	175
1352.33	153
1352.77	141
1353.21	181
1353.65	151
1354.09	175
1354.53	143
1354.97	187
1355.41	161
1355.85	139
1356.29	109
1356.72	187
1357.16	143
1357.6	129
1358.04	153
1358.48	125
1358.92	153
1359.36	147
1359.79	145
1360.23	161
1360.67	113
1361.11	137
1361.55	155
1361.99	121
1362.43	195
1362.87	109
1363.3	139
1363.74	151
1364.18	175
1364.62	141
1365.06	161
1365.49	103
1365.93	125
1366.37	167
1366.81	117
1367.25	191
1367.68	79
1368.12	157
1368.56	131
1369	169
1369.44	119
1369.87	155
1370.31	105
1370.75	137
1371.19	163
1371.62	95
1372.06	181
1372.5	69
1372.94	159
1373.37	121
1373.81	165
1374.25	121
1374.69	129
1375.12	123
1375.56	143
1376	145
1376.44	117
1376.87	173
1377.31	89
1377.75	185
1378.19	147
1378.62	131
1379.06	137
1379.5	117
1379.93	149
1380.37	153
1380.81	141
1381.25	151
1381.68	143
1382.12	127
1382.56	137
1382.99	147
1383.43	119
1383.87	125
1384.3	117
1384.74	123
1385.18	167
1385.61	87
1386.05	185
1386.49	89
1386.92	177
1387.36	117
1387.8	141
1388.23	139
1388.67	117
1389.1	143
1389.54	123
1389.98	171
1390.41	83
1390.85	177
1391.29	95
1391.72	177
1392.16	125
1392.59	137
1393.03	153
1393.47	93
1393.9	167
1394.34	133
1394.77	145
1395.21	113
1395.65	193
1396.08	105
1396.52	155
1396.95	123
1397.39	155
1397.82	159
1398.26	97
1398.7	133
1399.13	137
1399.57	131
1400	137
1400.44	133
1400.87	107
1401.31	145
1401.74	97
1402.18	143
1402.62	129
1403.05	99
1403.49	139
1403.92	127
1404.36	125
1404.79	169
1405.23	103
1405.66	133
1406.1	141
1406.53	123
1406.97	151
1407.4	109
1407.84	137
1408.27	127
1408.71	153
1409.14	105
1409.58	167
1410.01	107
1410.45	161
1410.88	125
1411.31	111
1411.75	173
1412.18	95
1412.62	159
1413.05	93
1413.49	169
1413.92	117
1414.36	169
1414.79	119
1415.23	147
1415.66	129
1416.1	97
1416.53	169
1416.96	77
1417.4	159
1417.83	97
1418.27	137
1418.7	159
1419.13	119
1419.57	127
1420	143
1420.44	129
1420.87	133
1421.3	149
1421.74	109
1422.17	159
1422.61	131
1423.04	121
1423.47	171
1423.91	103
1424.34	97
1424.77	155
1425.21	115
1425.64	143
1426.07	131
1426.51	141
1426.94	121
1427.38	129
1427.81	119
1428.24	143
1428.68	113
1429.11	131
1429.54	145
1429.98	113
1430.41	165
1430.84	75
1431.28	185
1431.71	123
1432.14	159
1432.57	135
1433.01	125
1433.44	113
1433.87	117
1434.31	171
1434.74	117
1435.17	183
1435.61	63
1436.04	185
1436.47	117
1436.9	141
1437.34	149
1437.77	109
1438.2	133
1438.63	113
1439.07	151
1439.5	111
1439.93	143
1440.36	91
1440.8	157
1441.23	125
1441.66	125
1442.09	131
1442.53	87
1442.96	149
1443.39	143
1443.82	113
1444.26	151
1444.69	91
1445.12	117
1445.55	149
1445.98	127
1446.42	133
1446.85	131
1447.28	123
1447.71	141
1448.14	151
1448.57	111
1449.01	173
1449.44	87
1449.87	153
1450.3	135
1450.73	129
1451.17	145
1451.6	95
1452.03	125
1452.46	125
1452.89	157
1453.32	69
1453.76	165
1454.19	87
1454.62	171
1455.05	125
1455.48	141
1455.91	139
1456.34	89
1456.77	153
1457.21	143
1457.64	151
1458.07	85
1458.5	138.784
1458.93	99.2358
1459.36	169.922
1459.79	123.22
1460.22	140.507
1460.65	156.762
1461.08	90.5628
1461.52	162.449
1461.95	114.042
1462.38	123.663
1462.81	148.099
1463.24	115.7
1463.67	113.325
1464.1	123.482
1464.53	119.551
1464.96	135.733
1465.39	137.689
1465.82	113.235
1466.25	126.22
1466.68	152.952
1467.11	103.479
1467.54	143.05
1467.98	92.6132
1468.41	132.568
1468.84	147.129
1469.27	119.681
1469.7	147.609
1470.13	102.004
1470.56	138.66
1470.99	113.658
1471.42	134.1
1471.85	104.897
1472.28	134.973
1472.71	105.745
1473.14	150.772
1473.57	141.118
1474	101.189
1474.43	149.932
1474.86	117.018
1475.29	150.69
1475.72	99.0091
1476.15	146.839
1476.58	113.178
1477.01	133.982
1477.44	110.204
1477.87	141.067
1478.3	150.232
1478.72	98.6884
1479.15	149.195
1479.58	99.3725
1480.01	137.994
1480.44	104.586
1480.87	144.91
1481.3	118.216
1481.73	135.71
1482.16	103.258
1482.59	164.797
1483.02	131.187
1483.45	128.754
1483.88	133.83
1484.31	110.244
1484.74	135.537
1485.17	98.3675
1485.59	145.139
1486.02	125.246
1486.45	141.196
1486.88	90.6799
1487.31	141.827
1487.74	121.122
1488.17	135.032
1488.6	125.482
1489.02	121.658
1489.45	139.89
1489.88	119.61
1490.31	136.28
1490.74	135.829
1491.17	137.405
1491.6	109.86
1492.03	136.961
1492.45	132.593
1492.88	141.582
1493.31	126.264
1493.74	125.5
1494.17	123.737
1494.6	129.811
1495.02	133.945
1495.45	144.843
1495.88	125.844
1496.31	97.874
1496.74	117.846
1497.17	122.745
1497.59	129.118
1498.02	116.753
1498.45	119.968
1498.88	129.07
1499.31	148.578
1499.73	138.566
1500.16	138.942
1500.59	134.752
1501.02	114.62
1501.45	137.475
1501.87	134.922
1502.13	115
1502.56	131
1502.99	97
1503.43	129
1503.86	145
1504.29	157
1504.72	89
1505.16	163
1505.59	81
1506.02	147
1506.46	133
1506.89	125
1507.32	145
1507.75	75
1508.19	169
1508.62	119
1509.05	147
1509.49	71
1509.92	169
1510.35	89
1510.78	153
1511.21	127
1511.65	107
1512.08	159
1512.51	61
1512.94	153
1513.38	121
1513.81	145
1514.24	111
1514.67	137
1515.11	111
1515.54	151
1515.97	137
1516.4	115
1516.83	159
1517.27	87
1517.7	159
1518.13	137
1518.56	127
1518.99	145
1519.42	121
1519.86	135
1520.29	175
1520.72	121
1521.15	129
1521.58	129
1522.01	113
1522.45	129
1522.88	131
1523.31	111
1523.74	153
1524.17	113
1524.6	149
1525.04	153
1525.47	109
1525.9	163
1526.33	101
1526.76	141
1527.19	125
1527.62	151
1528.05	111
1528.49	157
1528.92	107
1529.35	147
1529.78	155
1530.21	95
1530.64	171
1531.07	91
1531.5	169
1531.93	105
1532.37	173
1532.8	111
1533.23	137
1533.66	111
1534.09	143
1534.52	145
1534.95	93
1535.38	183
1535.81	71
1536.24	187
1536.67	109
1537.1	163
1537.53	153
1537.96	119
1538.39	133
1538.82	141
1539.26	155
1539.68	113
1540.12	155
1540.55	113
1540.98	159
1541.41	121
1541.84	137
1542.27	161
1542.7	103
1543.13	135
1543.56	153
1543.99	127
1544.42	137
1544.85	127
1545.28	137
1545.71	143
1546.14	119
1546.57	139
1547	159
1547.43	101
1547.86	109
1548.29	155
1548.72	111
1549.14	199
1549.57	107
1550.01	167
1550.43	139
1550.86	143
1551.29	131
1551.72	145
1552.15	125
1552.58	129
1553.01	179
1553.44	133
1553.87	215
1554.3	89
1554.73	193
1555.16	141
1555.59	161
1556.01	147
1556.44	121
1556.87	177
1557.3	137
1557.73	191
1558.16	131
1558.59	195
1559.02	91
1559.45	185
1559.88	171
1560.3	155
1560.73	193
1561.16	109
1561.59	179
1562.02	175
1562.45	177
1562.88	159
1563.31	191
1563.73	129
1564.16	187
1564.59	183
1565.02	171
1565.45	189
1565.88	179
1566.3	187
1566.73	215
1567.16	189
1567.59	215
1568.02	133
1568.45	183
1568.88	213
1569.3	235
1569.73	219
1570.16	177
1570.59	193
1571.01	215
1571.44	279
1571.87	169
1572.3	273
1572.73	187
1573.15	271
1573.58	221
1574.01	235
1574.44	237
1574.87	203
1575.29	291
1575.72	267
1576.15	283
1576.58	223
1577	349
1577.43	239
1577.86	337
1578.29	289
1578.71	295
1579.14	343
1579.57	273
1580	361
1580.42	351
1580.85	373
1581.28	303
1581.71	377
1582.13	353
1582.56	441
1582.99	409
1583.41	417
1583.84	467
1584.27	471
1584.7	511
1585.12	513
1585.55	577
1585.98	581
1586.4	589
1586.83	615
1587.26	641
1587.68	581
1588.11	681
1588.54	693
1588.96	699
1589.39	705
1589.82	739
1590.24	673
1590.67	699
1591.1	589
1591.52	707
1591.95	617
1592.38	643
1592.8	689
1593.23	617
1593.65	621
1594.08	571
1594.51	575
1594.93	473
1595.36	509
1595.79	427
1596.21	475
1596.64	379
1597.06	401
1597.49	393
1597.92	327
1598.34	351
1598.77	249
1599.19	329
1599.62	295
1600.05	307
1600.47	249
1600.9	323
1601.32	289
1601.75	249
1602.18	261
1602.6	175
1603.03	241
1603.45	215
1603.88	209
1604.3	195
1604.73	213
1605.15	173
1605.58	215
1606	181
1606.43	159
1606.86	219
1607.28	161
1607.71	181
1608.13	167
1608.56	165
1608.98	187
1609.41	155
1609.83	147
1610.26	191
1610.68	161
1611.11	173
1611.53	133
1611.96	139
1612.38	157
1612.81	177
1613.23	139
1613.66	181
1614.08	147
1614.51	151
1614.93	157
1615.36	141
1615.78	167
1616.21	119
1616.63	179
1617.06	155
1617.48	175
1617.9	139
1618.33	189
1618.75	129
1619.18	159
1619.6	181
1620.03	131
1620.45	195
1620.88	87
1621.3	181
1621.72	137
1622.15	165
1622.57	117
1623	175
1623.42	125
1623.85	169
1624.27	169
1624.69	109
1625.12	183
1625.54	75
1625.97	122.333
1626.39	132.083
1626.81	126.883
1627.24	148
1627.66	157
1628.08	139
1628.51	157
1628.93	165
1629.36	131
1629.78	155
1630.2	69
1630.63	169
1631.05	129
1631.47	133
1631.9	145
1632.32	121
1632.74	159
1633.17	147
1633.59	153
1634.01	129
1634.44	123
1634.86	123
1635.28	155
1635.71	127
1636.13	125
1636.55	137
1636.98	117
1637.4	155
1637.82	155
1638.25	103
1638.67	161
1639.09	83
1639.51	149
1639.94	113
1640.36	137
1640.78	119
1641.21	139
1641.63	115
1642.05	125
1642.47	149
1642.9	69
1643.32	175
1643.74	85
1644.17	173
1644.59	111
1645.01	133
1645.43	123
1645.86	133
1646.28	131
1646.7	135
1647.12	141
1647.55	99
1647.97	185
1648.39	91
1648.81	175
1649.23	103
1649.66	131
1650.08	145
1650.5	111
1650.92	143
1651.35	143
1651.77	137
1652.19	111
1652.61	135
1653.03	109
1653.45	155
1653.88	97
1654.3	137
1654.72	157
1655.14	107
1655.56	135
1655.99	119
1656.41	101
1656.83	157
1657.25	119
1657.67	135
1658.09	117
1658.52	111
1658.94	115
1659.36	143
1659.78	105
1660.2	91
1660.62	155
1661.04	105
1661.47	175
1661.89	67
1662.31	145
1662.73	121
1663.15	149
1663.57	141
1663.99	117
1664.41	117
1664.83	115
1665.26	155
1665.68	97
1666.1	169
1666.52	63
1666.94	175
1667.36	121
1667.78	123
1668.2	115
1668.62	135
1669.04	129
1669.46	99
1669.89	139
1670.31	83
1670.73	167
1671.15	91
1671.57	165
1671.99	135
1672.41	127
1672.83	131
1673.25	101
1673.67	139
1674.09	115
1674.51	131
1674.93	123
1675.35	113
1675.77	93
1676.19	137
1676.61	147
1677.03	141
1677.45	125
1677.87	87
1678.29	149
1678.71	159
1679.13	101
1679.55	169
1679.97	77
1680.39	121
1680.81	113
1681.23	125
1681.65	125
1682.07	81
1682.49	121
1682.91	117
1683.33	145
1683.75	77
1684.17	179
1684.59	61
1685.01	159
1685.43	109
1685.85	145
1686.27	139
1686.69	91
1687.11	155
1687.53	129
1687.95	141
1688.37	85
1688.78	179
1689.2	89
1689.62	159
1690.04	115
1690.46	129
1690.88	139
1691.3	81
1691.72	133
1692.14	117
1692.56	141
1692.98	91
1693.39	139
1693.81	83
1694.23	157
1694.65	117
1695.07	123
1695.49	139
1695.91	91
1696.33	153
1696.75	119
1697.16	127
1697.58	111
1698	101
1698.42	141
1698.84	135
1699.26	103
1699.68	119
1700.09	117
1700.51	111
1700.93	129
1701.35	127
1701.77	99
1702.19	159
1702.6	85
1703.02	135
1703.44	133
1703.86	113
1704.28	161
1704.69	91
1705.11	157
1705.53	85
1705.95	151
1706.37	95
1706.78	169
1707.2	81
1707.62	133
1708.04	149
1708.46	109
1708.87	169
1709.29	101
1709.71	159
1710.13	93
1710.54	141
1710.96	105
1711.38	143
1711.8	89
1712.22	149
1712.63	135
1713.05	121
1713.47	155
1713.89	97
1714.3	163
1714.72	87
1715.14	141
1715.56	113
1715.97	139
1716.39	105
1716.81	147
1717.22	119
1717.64	109
1718.06	139
1718.48	73
1718.89	171
1719.31	99
1719.73	121
1720.14	157
1720.56	97
1720.98	115
1721.39	139
1721.81	119
1722.23	119
1722.64	113
1723.06	111
1723.48	129
1723.89	127
1724.31	121
1724.73	145
1725.14	79
1725.56	109
1725.98	147
1726.39	115
1726.81	183
1727.23	69
1727.64	147
1728.06	113
1728.48	143
1728.89	101
1729.31	155
1729.72	107
1730.14	121
1730.56	133
1730.97	101
1731.39	163
1731.8	45
1732.22	143
1732.64	111
1733.05	143
1733.47	109
1733.89	109
1734.3	87
1734.72	129
1735.13	131
1735.55	95
1735.96	161
1736.38	51
1736.8	147
1737.21	109
1737.63	137
1738.04	123
1738.46	107
1738.87	115
1739.29	135
1739.71	131
1740.12	119
1740.54	121
1740.95	73
1741.37	155
1741.78	127
1742.2	129
1742.61	137
1743.03	99
1743.44	125
1743.86	137
1744.27	95
1744.69	133
1745.1	89
1745.52	131
1745.93	121
1746.35	149
1746.77	89
1747.18	127
1747.59	101
1748.01	133
1748.42	119
1748.84	77
1749.25	167
1749.67	75
1750.08	149
1750.5	115
1750.91	129
1751.33	99
1751.74	141
1752.16	119
1752.57	139
1752.99	147
1753.4	89
1753.81	181
1754.23	63
1754.64	159
1755.06	81
1755.47	119
1755.89	129
1756.3	97
1756.72	121
1757.13	123
1757.54	125
1757.96	111
1758.37	145
1758.78	81
1759.2	153
1759.61	91
1760.03	109
1760.44	143
1760.86	97
1761.27	99
1761.68	125
1762.1	123
1762.51	125
1762.92	109
1763.34	113
1763.75	119
1764.17	117
1764.58	109
1764.99	131
1765.41	95
1765.82	119
1766.23	131
1766.65	99
1767.06	169
1767.47	93
1767.89	131
1768.3	113
1768.71	121
1769.13	107
1769.54	121
1769.95	105
1770.37	109
1770.78	147
1771.19	109
1771.61	167
1772.02	47
1772.43	165
1772.85	95
1773.26	135
1773.67	123
1774.09	97
1774.5	109
1774.91	105
1775.32	135
1775.74	99
1776.15	145
1776.56	47
1776.97	167
1777.39	125
1777.8	119
1778.21	107
1778.62	101
1779.04	131
1779.45	125
1779.86	147
1780.28	109
1780.69	135
1781.1	67
1781.51	149
1781.92	111
1782.34	111
1782.75	125
1783.16	97
1783.57	121
1783.99	119
1784.4	131
1784.81	147
1785.22	107
1785.63	93
1786.05	127
1786.46	115
1786.87	95
1787.28	111
1787.69	99
1788.11	137
1788.52	135
1788.93	75
1789.34	175
1789.75	61
1790.17	145
1790.58	135
1790.99	127
1791.4	115
1791.81	73
1792.22	119
1792.63	117
1793.05	139
1793.46	63
1793.87	165
1794.28	83
1794.69	165
1795.1	125
1795.52	109
1795.93	147
1796.34	79
1796.75	143
1797.16	109
1797.57	153
1797.98	89
1798.39	133
1798.81	73
1799.22	133
1799.63	123
1800.04	109
1800.45	161
1800.86	61
1801.27	145
1801.68	111
1802.09	141
1802.5	101
1802.91	119
1803.32	101
1803.73	149
1804.15	105
1804.56	119
1804.97	137
1805.38	91
1805.79	153
1806.2	121
1806.61	115
1807.02	121
1807.43	99
1807.84	125
1808.25	129
1808.66	111
1809.07	125
1809.48	129
1809.89	111
1810.3	125
1810.71	137
1811.12	111
1811.53	155
1811.94	85
1812.35	131
1812.76	117
1813.17	85
1813.58	151
1813.99	97
1814.4	137
1814.81	75
1815.22	143
1815.63	93
1816.04	129
1816.45	75
1816.86	143
1817.27	121
1817.68	79
1818.09	163
1818.5	67
1818.91	147
1819.32	87
1819.73	141
1820.14	103
1820.55	131
1820.96	101
1821.37	153
1821.78	105
1822.19	91
1822.6	151
1823.01	79
1823.42	147
1823.82	113
1824.23	135
1824.64	143
1825.05	97
1825.46	95
1825.87	149
1826.28	99
1826.69	115
1827.1	107
1827.51	65
1827.91	131
1828.32	91
1828.73	125
1829.14	135
1829.55	95
1829.96	103
1830.37	127
1830.78	133
1831.18	145
1831.59	87
1832	103
1832.41	117
1832.82	121
1833.23	107
1833.64	155
1834.05	73
1834.45	129
1834.86	139
1835.27	103
1835.68	151
1836.09	73
1836.49	155
1836.9	109
1837.31	149
1837.72	89
1838.13	135
1838.53	89
1838.94	113
1839.35	133
1839.76	99
1840.17	165
1840.58	43
1840.98	149
1841.39	107
1841.8	137
1842.21	103
1842.61	97
1843.02	111
1843.43	129
1843.84	133
1844.25	105
1844.65	153
1845.06	65
1845.47	153
1845.88	133
1846.28	114.871
1846.69	110.665
1847.1	89.9818
1847.51	121.035
1847.91	149.941
1848.32	117.602
1848.73	138.105
1849.14	103.93
1849.54	102.484
1849.95	140.88
1850.36	113.599
1850.77	111.478
1851.17	104.223
1851.58	101.704
1851.99	121.012
1852.39	140.79
1852.8	99.5999
1853.21	158.252
1853.62	100.401
1854.02	121.877
1854.43	119.469
1854.84	130.538
1855.24	106.205
1855.65	113.314
1856.06	126.554
1856.46	132.64
1856.87	126.804
1857.28	86.1356
1857.68	160.753
1858.09	94.7134
1858.5	159.235
1858.9	97.3183
1859.31	142.822
1859.72	129.984
1860.12	101.061
1860.53	125.721
1860.94	121.615
1861.34	144.845
1861.75	103.282
1862.15	142.319
1862.56	96.2298
1862.97	144.263
1863.37	103.391
1863.78	139.709
1864.19	117.092
1864.59	109.241
1865	127.369
1865.4	127.737
1865.81	121.101
1866.22	109.145
1866.62	126.202
1867.03	101.727
1867.43	139.609
1867.84	98.3997
1868.25	128.717
1868.65	119.631
1869.06	107.564
1869.46	123.94
1869.87	148.161
1870.28	121.882
1870.68	132.404
1871.09	112.871
1871.49	116.116
1871.9	138.863
1872.3	96.7909
1872.71	128.163
1873.12	115.681
1873.52	110.275
1873.93	112.525
1874.33	125.231
1874.74	116.52
1875.14	127.55
1875.55	100.636
1875.95	134.515
1876.36	135.363
1876.76	106.422
1877.17	123.547
1877.57	105.339
1877.98	118.425
1878.38	124.667
1878.79	119.283
1879.19	126.31
1879.6	136.494
1880	115.148
1880.41	125.791
1880.81	135.704
1881.22	124.814
1881.63	132.674
1882.03	126.238
1882.43	116.515
1882.84	130.127
1883.24	115.307
1883.65	121.048
1884.05	126.992
1884.46	99.4
1884.86	115.437
1885.27	126.274
1885.67	117.476
1886.08	133.109
1886.48	119.647
1886.89	113.533
1887.29	129.764
1887.69	99.8571
1888.1	103.425
1888.5	121.373
1888.85	101
1889.26	115
1889.67	143
1890.08	115
1890.49	155
1890.9	87
1891.3	137
1891.71	113
1892.12	137
1892.53	115
1892.94	157
1893.35	103
1893.76	115
1894.17	143
1894.58	99
1894.99	159
1895.4	49
1895.81	143
1896.22	113
1896.62	127
1897.03	103
1897.44	123
1897.85	75
1898.26	123
1898.67	125
1899.08	103
1899.49	167
1899.9	41
1900.3	141
1900.71	103
1901.12	137
1901.53	99
1901.94	121
1902.35	93
1902.75	137
1903.16	139
1903.57	101
1903.98	159
1904.39	51
1904.8	155
1905.21	105
1905.61	105
1906.02	117
1906.43	101
1906.84	115
1907.25	107
1907.66	131
1908.06	117
1908.47	135
1908.88	97
1909.29	137
1909.7	103
1910.1	119
1910.51	109
1910.92	99
1911.33	125
1911.73	127
1912.14	105
1912.55	135
1912.96	73
1913.37	111
1913.77	137
1914.18	125
1914.59	109
1915	107
1915.4	93
1915.81	141
1916.22	145
1916.63	91
1917.03	153
1917.44	85
1917.85	139
1918.26	129
1918.66	153
1919.07	109
1919.48	127
1919.89	109
1920.29	127
1920.7	145
1921.11	83
1921.51	169
1921.92	57
1922.33	167
1922.73	91
1923.14	139
1923.55	119
1923.96	99
1924.36	111
1924.77	121
1925.18	131
1925.58	71
1925.99	167
1926.4	61
1926.8	159
1927.21	101
1927.62	123
1928.02	131
1928.43	89
1928.84	127
1929.24	129
1929.65	135
1930.06	105
1930.46	145
1930.87	99
1931.28	147
1931.68	103
1932.09	125
1932.49	147
1932.9	101
1933.31	117
1933.71	121
1934.12	107
1934.53	121
1934.93	109
1935.34	93
1935.74	117
1936.15	93
1936.56	123
1936.96	141
1937.37	105
1937.78	105
1938.18	121
1938.59	123
1938.99	151
1939.4	75
1939.8	131
1940.21	109
1940.62	119
1941.02	109
1941.43	139
1941.83	107
1942.24	91
1942.64	151
1943.05	95
1943.45	177
1943.86	49
1944.27	153
1944.67	107
1945.08	119
1945.48	117
1945.89	97
1946.29	129
1946.7	87
1947.1	143
1947.51	97
1947.91	161
1948.32	57
1948.72	149
1949.13	115
1949.53	127
1949.94	133
1950.34	109
1950.75	123
1951.15	111
1951.56	113
1951.96	133
1952.37	135
1952.77	73
1953.18	141
1953.58	119
1953.99	137
1954.39	125
1954.8	99
1955.2	129
1955.61	125
1956.01	113
1956.42	135
1956.82	117
1957.23	109
1957.63	153
1958.03	117
1958.44	127
1958.84	115
1959.25	81
1959.65	133
1960.06	135
1960.46	103
1960.86	149
1961.27	101
1961.67	149
1962.08	127
1962.48	123
1962.89	117
1963.29	117
1963.69	119
1964.1	125
1964.5	153
1964.91	63
1965.31	183
1965.71	63
1966.12	159
1966.52	95
1966.93	129
1967.33	117
1967.73	83
1968.14	127
1968.54	111
1968.94	137
1969.35	83
1969.75	169
1970.15	79
1970.56	159
1970.96	115
1971.37	133
1971.77	149
1972.17	75
1972.58	135
1972.98	129
1973.38	133
1973.79	101
1974.19	147
1974.59	119
1974.99	135
1975.4	105
1975.8	133
1976.21	145
1976.61	99
1977.01	127
1977.41	137
1977.82	113
1978.22	135
1978.62	113
1979.03	111
1979.43	145
1979.83	77
1980.24	119
1980.64	123
1981.04	113
1981.44	129
1981.85	141
1982.25	123
1982.65	151
1983.05	109
1983.46	133
1983.86	139
1984.26	123
1984.66	131
1985.07	127
1985.47	121
1985.87	115
1986.27	153
1986.68	71
1987.08	179
1987.48	61
1987.88	161
1988.29	123
1988.69	105
1989.09	141
1989.49	83
1989.89	143
1990.3	103
1990.7	153
1991.1	79
1991.5	171
1991.9	81
1992.31	153
1992.71	131
1993.11	107
1993.51	167
1993.91	87
1994.32	157
1994.72	85
1995.12	159
1995.52	121
1995.92	149
1996.32	91
1996.73	129
1997.13	109
1997.53	123
1997.93	155
1998.33	93
1998.73	135
1999.14	97
1999.54	139
1999.94	117
2000.34	107
2000.74	89
2001.14	155
2001.54	125
2001.94	101
2002.35	135
2002.75	85
2003.15	151
2003.55	123
2003.95	99
2004.35	145
2004.75	93
2005.15	123
2005.55	141
2005.96	127
2006.36	135
2006.76	83
2007.16	129
2007.56	133
2007.96	161
2008.36	93
2008.76	167
2009.16	91
2009.56	115
2009.96	157
2010.36	97
2010.76	169
2011.16	61
2011.57	147
2011.97	117
2012.37	143
2012.77	95
2013.17	139
2013.57	75
2013.97	125
2014.37	123
2014.77	121
2015.17	169
2015.57	53
2015.97	135
2016.37	107
2016.77	137
2017.17	97
2017.57	151
2017.97	91
2018.37	151
2018.77	123
2019.17	133
2019.57	149
2019.97	69
2020.37	167
2020.77	127
2021.17	137
2021.57	113
2021.97	129
2022.37	115
2022.77	143
2023.17	113
2023.57	117
2023.97	141
2024.37	99
2024.77	135
2025.17	117
2025.57	121
2025.97	139
2026.37	95
2026.77	127
2027.16	139
2027.56	127
2027.96	121
2028.36	113
2028.76	125
2029.16	135
2029.56	135
2029.96	93
2030.36	171
2030.76	81
2031.16	141
2031.56	143
2031.96	105
2032.35	151
2032.75	97
2033.15	141
2033.55	103
2033.95	155
2034.35	95
2034.75	143
2035.15	81
2035.54	153
2035.94	127
2036.34	87
2036.74	171
2037.14	75
2037.54	167
2037.94	99
2038.34	129
2038.74	109
2039.13	155
2039.53	91
2039.93	143
2040.33	111
2040.73	95
2041.12	133
2041.52	67
2041.92	145
2042.32	85
2042.72	147
2043.12	117
2043.51	125
2043.91	89
2044.31	163
2044.71	127
2045.11	121
2045.51	145
2045.9	77
2046.3	127
2046.7	93
2047.1	135
2047.49	137
2047.89	87
2048.29	113
2048.69	135
2049.09	131
2049.48	135
2049.88	97
2050.28	107
2050.68	131
2051.07	119
2051.47	113
2051.87	149
2052.27	101
2052.67	129
2053.06	149
2053.46	107
2053.86	163
2054.26	65
2054.65	129
2055.05	115
2055.45	141
2055.85	85
2056.24	185
2056.64	83
2057.04	121
2057.43	149
2057.83	113
2058.23	155
2058.62	69
2059.02	149
2059.42	117
2059.82	149
2060.21	87
2060.61	135
2061.01	93
2061.4	151
2061.8	141
2062.2	107
2062.59	143
2062.99	53
2063.39	161
2063.79	129
2064.18	147
2064.58	103
2064.97	137
2065.37	121
2065.77	133
2066.16	139
2066.56	99
2066.96	131
2067.35	75
2067.75	167
2068.15	115
2068.54	111
2068.94	119
2069.34	103
2069.73	113
2070.13	127
2070.52	109
2070.92	133
2071.32	119
2071.71	107
2072.11	137
2072.51	129
2072.9	123
2073.3	129
2073.69	87
2074.09	131
2074.49	149
2074.88	95
2075.28	151
2075.67	93
2076.07	123
2076.47	109
2076.86	129
2077.26	107
2077.65	131
2078.05	93
2078.44	123
2078.84	129
2079.23	87
2079.63	159
2080.03	81
2080.42	157
2080.82	111
2081.21	127
2081.61	99
2082	139
2082.4	113
2082.79	149
2083.19	123
2083.58	85
2083.98	151
2084.37	47
2084.77	149
2085.16	87
2085.56	153
2085.95	127
2086.35	131
2086.74	109
2087.14	133
2087.53	141
2087.93	77
2088.32	153
2088.72	65
2089.11	155
2089.51	81
2089.9	113
2090.3	135
2090.69	97
2091.09	103
2091.48	113
2091.88	111
2092.27	91
2092.67	133
2093.06	93
2093.46	143
2093.85	97
2094.25	133
2094.64	137
2095.03	109
2095.43	119
2095.82	141
2096.22	111
2096.61	147
2097.01	109
2097.4	117
2097.79	135
2098.19	121
2098.58	125
2098.98	143
2099.37	97
2099.76	107
2100.16	137
2100.55	113
2100.95	161
2101.34	51
2101.73	139
2102.13	111
2102.52	127
2102.92	115
2103.31	123
2103.7	93
2104.1	113
2104.49	145
2104.88	97
2105.28	163
2105.67	49
2106.07	161
2106.46	105
2106.85	149
2107.25	109
2107.64	121
2108.03	113
2108.43	129
2108.82	137
2109.21	109
2109.61	141
2110	45
2110.39	157
2110.79	109
2111.18	129
2111.57	135
2111.97	93
2112.36	135
2112.75	121
2113.15	125
2113.54	135
2113.93	121
2114.32	73
2114.72	133
2115.11	135
2115.5	115
2115.9	113
2116.29	87
2116.68	127
2117.08	153
2117.47	93
2117.86	145
2118.25	89
2118.65	105
2119.04	119
2119.43	119
2119.82	113
2120.22	121
2120.61	103
2121	145
2121.39	143
2121.79	77
2122.18	173
2122.57	69
2122.96	149
2123.36	97
2123.75	147
2124.14	101
2124.53	135
2124.93	89
2125.32	141
2125.71	133
2126.1	59
2126.49	179
2126.89	71
2127.28	167
2127.67	65
2128.06	153
2128.45	103
2128.85	127
2129.24	101
2129.63	109
2130.02	121
2130.41	79
2130.81	161
2131.2	69
2131.59	157
2131.98	93
2132.37	133
2132.76	139
2133.16	95
2133.55	117
2133.94	147
2134.33	125
2134.72	113
2135.11	137
2135.5	109
2135.9	153
2136.29	97
2136.68	123
2137.07	141
2137.46	97
2137.85	93
2138.24	145
2138.63	107
2139.03	127
2139.42	95
2139.81	123
2140.2	125
2140.59	113
2140.98	111
2141.37	139
2141.76	109
2142.15	117
2142.55	131
2142.94	103
2143.33	145
2143.72	63
2144.11	149
2144.5	99
2144.89	139
2145.28	107
2145.67	133
2146.06	83
2146.45	111
2146.84	137
2147.23	101
2147.62	183
2148.02	47
2148.4	153
2148.8	109
2149.19	135
2149.58	93
2149.97	101
2150.36	121
2150.75	121
2151.14	129
2151.53	79
2151.92	143
2152.31	49
2152.7	159
2153.09	103
2153.48	103
2153.87	115
2154.26	95
2154.65	115
2155.04	123
2155.43	139
2155.82	121
2156.21	117
2156.6	65
2156.99	153
2157.38	109
2157.77	141
2158.16	137
2158.55	97
2158.94	127
2159.33	145
2159.72	109
2160.11	143
2160.5	117
2160.89	87
2161.28	131
2161.66	121
2162.05	125
2162.44	119
2162.83	101
2163.22	127
2163.61	143
2164	83
2164.39	153
2164.78	77
2165.17	127
2165.56	105
2165.95	123
2166.34	125
2166.73	99
2167.11	99
2167.5	127
2167.89	133
2168.28	85
2168.67	161
2169.06	51
2169.45	147
2169.84	111
2170.23	121
2170.62	125
2171	95
2171.39	115
2171.78	113
2172.17	141
2172.56	75
2172.95	169
2173.34	73
2173.73	147
2174.11	109
2174.5	145
2174.89	129
2175.28	87
2175.67	131
2176.06	125
2176.45	125
2176.83	95
2177.22	139
2177.61	83
2178	159
2178.39	97
2178.78	105
2179.16	125
2179.55	83
2179.94	137
2180.33	125
2180.72	109
2181.1	115
2181.49	121
2181.88	109
2182.27	125
2182.66	101
2183.04	107
2183.43	123
2183.82	99
2184.21	125
2184.6	131
2184.98	97
2185.37	143
2185.76	83
2186.15	119
2186.53	105
2186.92	121
2187.31	127
2187.7	107
2188.08	107
2188.47	109
2188.86	155
2189.25	101
2189.63	195
2190.02	49
2190.41	141
2190.8	107
2191.18	111
2191.57	121
2191.96	89
2192.34	129
2192.73	87
2193.12	135
2193.51	83
2193.89	135
2194.28	45
2194.67	137
2195.06	103
2195.44	135
2195.83	135
2196.22	75
2196.6	131
2196.99	101
2197.38	135
2197.76	129
2198.15	137
2198.54	69
2198.92	155
2199.31	99
2199.7	119
2200.08	135
2200.47	79
2200.86	131
2201.24	119
2201.63	129
2202.02	131
2202.4	129
2202.79	73
2203.18	119
2203.56	123
2203.95	117
2204.34	113
2204.72	93
2205.11	119
2205.49	131
2205.88	91
2206.27	143
2206.65	71
2207.04	129
2207.43	119
2207.81	139
2208.2	123
2208.58	95
2208.97	131
2209.36	121
2209.74	139
2210.13	77
2210.51	185
2210.9	79
2211.29	151
2211.67	101
2212.06	127
2212.44	121
2212.83	77
2213.21	127
2213.6	91
2213.98	133
2214.37	63
2214.76	167
2215.14	69
2215.53	155
2215.91	101.101
2216.3	118.933
2216.69	136.984
2217.07	82.9403
2217.46	124.157
2217.84	119.763
2218.23	137.755
2218.61	78.8461
2219	133.811
2219.38	87.1472
2219.77	141.463
2220.15	92.9007
2220.54	103.23
2220.92	135.224
2221.31	81.2706
2221.69	141.504
2222.08	130.29
2222.46	120.28
2222.85	109.285
2223.23	121.923
2223.62	111.977
2224	130.455
2224.39	98.1838
2224.77	108.126
2225.16	139.394
2225.54	97.7786
2225.93	125.537
2226.31	124.747
2226.7	90.8283
2227.08	138.258
2227.47	75.1268
2227.85	117.878
2228.23	106.202
2228.62	110.237
2229	109.791
2229.39	127.775
2229.77	103.446
2230.16	111.755
2230.54	126.985
2230.92	99.6639
2231.31	163.463
2231.69	79.019
2232.08	122.445
2232.46	121.191
2232.85	120.875
2233.23	121.469
2233.62	99.6902
2234	120.807
2234.38	109.627
2234.77	138.295
2235.15	93.9206
2235.54	139.354
2235.92	92.5244
2236.3	123.958
2236.69	126.164
2237.07	116.604
2237.46	121.08
2237.84	95.6279
2238.22	109.004
2238.61	105.529
2238.99	123.796
2239.37	103.4
2239.76	128.904
2240.14	112.401
2240.53	130.203
2240.91	122.746
2241.29	127.742
2241.68	132.229
2242.06	115.466
2242.44	109.56
2242.83	112.917
2243.21	127.958
2243.59	115.103
2243.98	127.06
2244.36	108.78
2244.74	114.536
2245.13	119.39
2245.51	128.292
2245.89	111.871
2246.28	127.363
2246.66	83.1331
2247.04	132.071
2247.43	113.052
2247.81	120.966
2248.19	123.027
2248.58	111.678
2248.96	125.402
2249.34	99.3364
2249.73	125.212
2250.11	83.3832
2250.49	154.719
2250.88	67.9258
2251.26	152.03
2251.64	107.444
2252.02	125.857
2252.41	143.686
2252.79	90.3038
2252.8	89
2253.18	141
2253.57	99
2253.96	149
2254.35	109
2254.74	151
2255.12	61
2255.51	143
2255.9	111
2256.29	137
2256.67	135
2257.06	83
2257.45	113
2257.84	111
2258.22	129
2258.61	119
2259	127
2259.39	69
2259.77	143
2260.16	109
2260.55	143
2260.94	119
2261.32	109
2261.71	115
2262.1	123
2262.48	121
2262.87	139
2263.26	85
2263.65	111
2264.03	149
2264.42	103
2264.81	117
2265.19	107
2265.58	111
2265.97	141
2266.35	143
2266.74	89
2267.13	153
2267.51	91
2267.9	137
2268.29	113
2268.67	121
2269.06	101
2269.45	111
2269.83	93
2270.22	123
2270.61	167
2270.99	65
2271.38	161
2271.77	51
2272.15	169
2272.54	103
2272.93	135
2273.31	123
2273.7	85
2274.08	145
2274.47	119
2274.86	127
2275.24	57
2275.63	155
2276.02	75
2276.4	155
2276.79	97
2277.17	121
2277.56	123
2277.95	93
2278.33	135
2278.72	127
2279.1	115
2279.49	77
2279.88	139
2280.26	103
2280.65	145
2281.03	95
2281.42	109
2281.8	151
2282.19	91
2282.58	121
2282.96	127
2283.35	155
2283.73	115
2284.12	139
2284.5	105
2284.89	137
2285.28	93
2285.66	123
2286.05	135
2286.43	95
2286.82	129
2287.2	119
2287.59	113
2287.97	135
2288.36	83
2288.74	105
2289.13	133
2289.51	109
2289.9	121
2290.28	131
2290.67	99
2291.05	121
2291.44	133
2291.82	101
2292.21	169
2292.59	69
2292.98	135
2293.36	113
2293.75	107
2294.13	137
2294.52	123
2294.9	109
2295.29	103
2295.67	147
2296.06	83
2296.44	155
2296.83	71
2297.21	153
2297.6	115
2297.98	119
2298.36	125
2298.75	101
2299.13	105
2299.52	83
2299.9	133
2300.29	95
2300.67	165
2301.06	71
2301.44	177
2301.82	113
2302.21	139
2302.59	119
2302.98	83
2303.36	107
2303.75	89
2304.13	159
2304.51	101
2304.9	151
2305.28	79
2305.67	165
2306.05	123
2306.44	129
2306.82	155
2307.2	85
2307.59	147
2307.97	97
2308.35	125
2308.74	119
2309.12	135
2309.51	69
2309.89	141
2310.27	119
2310.66	117
2311.04	127
2311.42	83
2311.81	131
2312.19	143
2312.57	113
2312.96	129
2313.34	91
2313.73	87
2314.11	145
2314.49	131
2314.88	129
2315.26	113
2315.64	95
2316.03	133
2316.41	139
2316.79	99
2317.18	145
2317.56	99
2317.94	131
2318.32	135
2318.71	145
2319.09	119
2319.47	109
2319.86	101
2320.24	121
2320.62	145
2321.01	79
2321.39	157
2321.77	51
2322.15	145
2322.54	97
2322.92	131
2323.3	121
2323.69	87
2324.07	129
2324.45	127
2324.83	145
2325.22	61
2325.6	179
2325.98	63
2326.36	149
2326.75	99
2327.13	149
2327.51	135
2327.89	67
2328.28	135
2328.66	125
2329.04	147
2329.42	89
2329.81	169
2330.19	89
2330.57	169
2330.95	107
2331.33	121
2331.72	155
2332.1	107
2332.48	121
2332.86	111
2333.24	125
2333.63	95
2334.01	117
2334.39	87
2334.77	139
2335.15	85
2335.54	113
2335.92	141
2336.3	89
2336.68	119
2337.06	127
2337.44	133
2337.83	117
2338.21	111
2338.59	93
2338.97	133
2339.35	111
2339.73	115
2340.12	157
2340.5	85
2340.88	119
2341.26	131
2341.64	97
2342.02	163
2342.41	81
2342.79	129
2343.17	107
2343.55	117
2343.93	107
2344.31	141
2344.69	101
2345.07	101
2345.45	151
2345.84	91
2346.22	171
2346.6	51
2346.98	149
2347.36	111
2347.74	115
2348.12	113
2348.5	111
2348.88	109
2349.26	101
2349.65	131
2350.03	109
2350.41	171
2350.79	53
2351.17	149
2351.55	117
2351.93	133
2352.31	135
2352.69	113
2353.07	117
2353.45	117
2353.83	141
2354.21	91
2354.59	149
2354.98	53
2355.35	161
2355.74	121
2356.12	147
2356.5	125
2356.88	113
2357.26	133
2357.64	149
2358.02	137
2358.4	99
2358.78	143
2359.16	97
2359.54	147
2359.92	123
2360.3	125
2360.68	125
2361.06	101
2361.44	129
2361.82	133
2362.2	107
2362.58	133
2362.96	85
2363.34	117
2363.72	111
2364.1	123
2364.48	121
2364.86	105
2365.24	113
2365.62	143
2366	135
2366.38	99
2366.75	153
2367.14	61
2367.51	129
2367.89	121
2368.27	133
2368.65	111
2369.03	107
2369.41	113
2369.79	147
2370.17	135
2370.55	71
2370.93	175
2371.31	61
2371.69	157
2372.07	119
2372.45	121
2372.83	125
2373.2	107
2373.58	119
2373.96	119
2374.34	153
2374.72	67
2375.1	175
2375.48	79
2375.86	177
2376.24	95
2376.61	113
2376.99	129
2377.37	99
2377.75	147
2378.13	121
2378.51	151
2378.89	69
2379.27	173
2379.65	81
2380.02	147
2380.4	91
2380.78	133
2381.16	145
2381.54	97
2381.92	115
2382.3	133
2382.67	145
2383.05	107
2383.43	143
2383.81	89
2384.19	143
2384.57	91
2384.94	99
2385.32	147
2385.7	101
2386.08	111
2386.46	125
2386.83	105
2387.21	137
2387.59	99
2387.97	121
2388.35	163
2388.73	93
2389.1	119
2389.48	137
2389.86	111
2390.24	125
2390.62	131
2390.99	107
2391.37	153
2391.75	91
2392.13	131
2392.5	119
2392.88	107
2393.26	141
2393.64	131
2394.01	95
2394.39	105
2394.77	151
2395.15	99
2395.52	171
2395.9	67
2396.28	157
2396.66	113
2397.04	123
2397.41	123
2397.79	105
2398.17	113
2398.54	109
2398.92	153
2399.3	89
2399.68	169
2400.05	79
2400.43	147
2400.81	107
2401.18	135
2401.56	137
2401.94	99
2402.32	137
2402.69	113
2403.07	161
2403.45	107
2403.82	161
2404.2	61
2404.58	151
2404.95	113
2405.33	129
2405.71	123
2406.09	105
2406.46	129
2406.84	139
2407.22	135
2407.59	135
2407.97	117
2408.34	97
2408.72	143
2409.1	135
2409.47	121
2409.85	125
2410.23	107
2410.6	167
2410.98	169
2411.36	121
2411.73	137
2412.11	97
2412.49	117
2412.86	155
2413.24	143
2413.61	115
2413.99	137
2414.37	115
2414.74	161
2415.12	165
2415.5	85
2415.87	173
2416.25	67
2416.62	149
2417	143
2417.37	141
2417.75	133
2418.13	97
2418.5	131
2418.88	125
2419.25	175
2419.63	85
2420.01	183
2420.38	67
2420.76	169
2421.13	117
2421.51	141
2421.88	135
2422.26	123
2422.64	131
2423.01	155
2423.39	169
2423.76	89
2424.14	173
2424.51	73
2424.89	171
2425.26	93
2425.64	153
2426.01	145
2426.39	117
2426.76	149
2427.14	131
2427.52	137
2427.89	121
2428.26	163
2428.64	101
2429.02	173
2429.39	97
2429.77	153
2430.14	151
2430.52	103
2430.89	131
2431.26	155
2431.64	151
2432.02	143
2432.39	129
2432.77	133
2433.14	145
2433.51	115
2433.89	137
2434.26	175
2434.64	105
2435.01	125
2435.39	155
2435.76	153
2436.14	173
2436.51	113
2436.89	167
2437.26	163
2437.63	137
2438.01	171
2438.38	149
2438.76	155
2439.13	161
2439.51	171
2439.88	137
2440.26	201
2440.63	105
2441	199
2441.38	173
2441.75	143
2442.13	167
2442.5	185
2442.87	163
2443.25	145
2443.62	185
2444	129
2444.37	221
2444.74	125
2445.12	221
2445.49	169
2445.87	195
2446.24	155
2446.61	161
2446.99	159
2447.36	179
2447.73	197
2448.11	159
2448.48	193
2448.86	87
2449.23	205
2449.6	159
2449.98	171
2450.35	171
2450.72	153
2451.1	173
2451.47	183
2451.84	197
2452.22	153
2452.59	199
2452.97	139
2453.34	189
2453.71	169
2454.08	163
2454.46	173
2454.83	147
2455.2	181
2455.58	173
2455.95	167
2456.32	163
2456.7	159
2457.07	133
2457.44	201
2457.82	139
2458.19	149
2458.56	173
2458.93	169
2459.31	189
2459.68	173
2460.05	143
2460.43	189
2460.8	119
2461.17	149
2461.54	179
2461.92	167
2462.29	171
2462.66	139
2463.03	151
2463.41	157
2463.78	183
2464.15	141
2464.52	221
2464.9	107
2465.27	201
2465.64	169
2466.01	187
2466.39	171
2466.76	129
2467.13	145
2467.5	167
2467.88	179
2468.25	111
2468.62	209
2468.99	95
2469.37	175
2469.74	143
2470.11	171
2470.48	181
2470.85	113
2471.22	197
2471.6	151
2471.97	185
2472.34	121
2472.71	197
2473.08	87
2473.46	179
2473.83	123
2474.2	143
2474.57	169
2474.94	127
2475.32	151
2475.69	171
2476.06	181
2476.43	111
2476.8	169
2477.17	107
2477.55	169
2477.92	131
2478.29	155
2478.66	153
2479.03	137
2479.4	147
2479.77	177
2480.15	145
2480.52	125
2480.89	137
2481.26	129
2481.63	171
2482	113
2482.37	141
2482.74	159
2483.12	123
2483.49	143
2483.86	151
2484.23	125
2484.6	179
2484.97	117
2485.34	169
2485.71	129
2486.08	163
2486.46	145
2486.83	163
2487.2	141
2487.57	143
2487.94	153
2488.31	115
2488.68	199
2489.05	81
2489.42	173
2489.79	139
2490.16	157
2490.53	131
2490.9	151
2491.27	109
2491.64	127
2492.01	159
2492.38	115
2492.76	183
2493.13	77
2493.5	173
2493.87	97
2494.24	157
2494.61	137
2494.98	135
2495.35	123
2495.72	149
2496.09	155
2496.46	123
2496.83	185
2497.2	57
2497.57	187
2497.94	115
2498.31	143
2498.68	129
2499.05	107
2499.42	123
2499.79	137
2500.16	151
2500.53	115
2500.9	151
2501.27	103
2501.64	167
2502.01	149
2502.38	153
2502.75	131
2503.12	105
2503.49	137
2503.86	169
2504.23	117
2504.6	139
2504.97	125
2505.34	133
2505.7	133
2506.07	149
2506.44	119
2506.81	129
2507.18	127
2507.55	139
2507.92	153
2508.29	93
2508.66	169
2509.03	91
2509.4	147
2509.77	121
2510.14	151
2510.5	133
2510.88	145
2511.24	121
2511.61	165
2511.98	151
2512.35	99
2512.72	187
2513.09	75
2513.46	181
2513.83	95
2514.2	141
2514.56	113
2514.93	127
2515.3	113
2515.67	147
2516.04	143
2516.41	89
2516.78	191
2517.15	77
2517.51	179
2517.88	101
2518.25	159
2518.62	143
2518.99	137
2519.36	129
2519.73	139
2520.09	131
2520.46	117
2520.83	165
2521.2	83
2521.57	167
2521.94	101
2522.3	139
2522.67	149
2523.04	119
2523.41	131
2523.78	137
2524.15	121
2524.51	121
2524.88	155
2525.25	95
2525.62	153
2525.98	115
2526.35	139
2526.72	173
2527.09	103
2527.46	121
2527.83	155
2528.19	129
2528.56	153
2528.93	115
2529.3	109
2529.66	139
2530.03	129
2530.4	131
2530.77	157
2531.13	97
2531.5	133
2531.87	147
2532.24	139
2532.61	153
2532.97	101
2533.34	149
2533.71	131
2534.07	145
2534.44	105
2534.81	137
2535.18	99
2535.54	127
2535.91	137
2536.28	109
2536.65	167
2537.01	65
2537.38	153
2537.75	119
2538.11	151
2538.48	131
2538.85	123
2539.22	103
2539.58	125
2539.95	157
2540.32	117
2540.68	181
2541.05	47
2541.42	171
2541.78	125
2542.15	137
2542.52	123
2542.89	143
2543.25	129
2543.62	147
2543.99	143
2544.35	125
2544.72	177
2545.08	67
2545.45	159
2545.82	117
2546.19	125
2546.55	137
2546.92	117
2547.28	137
2547.65	139
2548.02	141
2548.38	135
2548.75	133
2549.12	83
2549.48	169
2549.85	127
2550.21	127
2550.58	131
2550.95	89
2551.31	123
2551.68	127
2552.05	127
2552.41	143
2552.78	121
2553.14	113
2553.51	153
2553.88	145
2554.24	121
2554.61	151
2554.97	91
2555.34	139
2555.71	151
2556.07	89
2556.44	155
2556.8	91
2557.17	149
2557.53	117
2557.9	155
2558.27	105
2558.63	145
2559	105
2559.36	131
2559.73	129
2560.09	81
2560.46	167
2560.82	85
2561.19	175
2561.55	111
2561.92	149
2562.29	111
2562.65	127
2563.02	105
2563.38	139
2563.75	125
2564.11	91
2564.48	171
2564.84	85
2565.21	159
2565.57	91.1837
2565.94	154.579
2566.3	142.843
2566.67	140.705
2567.03	100.014
2567.4	149.875
2567.76	141.253
2568.13	121.851
2568.49	170.109
2568.86	104.694
2569.22	170.124
2569.59	94.6388
2569.95	135.084
2570.32	140.209
2570.68	124.523
2571.05	120.834
2571.41	141.814
2571.78	129.158
2572.14	123.539
2572.51	129.948
2572.87	120.841
2573.23	143.915
2573.6	126.362
2573.96	130.743
2574.33	146.9
2574.69	104.171
2575.06	110.248
2575.42	142.868
2575.79	151.687
2576.15	157.284
2576.51	111.987
2576.88	133.329
2577.24	119.834
2577.61	140.915
2577.97	130.538
2578.34	156.365
2578.7	121.987
2579.06	135.789
2579.43	143.65
2579.79	131.02
2580.16	145.596
2580.52	115.488
2580.88	147.052
2581.25	127.519
2581.61	146.232
2581.98	121.184
2582.34	150.517
2582.7	114.034
2583.07	146.127
2583.43	120.987
2583.8	133.718
2584.16	142.027
2584.52	103.22
2584.89	161.567
2585.25	136.713
2585.61	174.263
2585.98	122.281
2586.34	151.837
2586.7	126.377
2587.07	141.712
2587.43	120.478
2587.8	156.705
2588.16	147.451
2588.52	123.892
2588.88	166.107
2589.25	116.743
2589.61	158.108
2589.97	119.184
2590.34	157.436
2590.7	146.719
2591.06	147.475
2591.43	117.041
2591.79	156.252
2592.15	146.175
2592.52	125.941
2592.88	159.777
2593.24	116.401
2593.61	149.653
2593.97	124.163
2594.33	134.346
2594.7	156.929
2595.06	118.101
2595.42	127.498
2595.78	153.739
2596.15	151.917
2596.51	140.076
2596.87	137.057
2597.24	137.857
2597.6	134.033
2597.96	164.336
2598.32	127.807
2598.69	183.029
2599.05	137.537
2599.41	153.072
2599.78	175.755
2600.14	162.779
2600.5	168.196
2600.86	124.807
2600.95	111
2601.31	137
2601.68	171
2602.05	173
2602.42	121
2602.78	189
2603.15	109
2603.52	171
2603.89	159
2604.25	161
2604.62	179
2604.99	109
2605.35	177
2605.72	161
2606.09	183
2606.46	117
2606.82	193
2607.19	103
2607.56	179
2607.92	143
2608.29	179
2608.66	177
2609.03	103
2609.39	199
2609.76	153
2610.13	207
2610.49	139
2610.86	201
2611.23	123
2611.59	201
2611.96	141
2612.33	179
2612.69	197
2613.06	127
2613.43	221
2613.79	171
2614.16	179
2614.53	131
2614.89	169
2615.26	145
2615.62	191
2615.99	173
2616.36	193
2616.72	181
2617.09	159
2617.46	187
2617.82	173
2618.19	165
2618.56	173
2618.92	191
2619.29	169
2619.65	195
2620.02	155
2620.39	183
2620.75	207
2621.12	163
2621.48	207
2621.85	213
2622.22	185
2622.58	229
2622.95	167
2623.31	207
2623.68	207
2624.04	167
2624.41	193
2624.78	211
2625.14	207
2625.51	189
2625.87	245
2626.24	187
2626.6	275
2626.97	167
2627.34	243
2627.7	205
2628.07	237
2628.43	213
2628.8	223
2629.16	245
2629.53	229
2629.9	257
2630.26	227
2630.63	287
2630.99	175
2631.36	275
2631.72	223
2632.09	267
2632.45	249
2632.82	229
2633.18	255
2633.55	245
2633.91	269
2634.28	255
2634.64	285
2635.01	195
2635.37	307
2635.74	243
2636.1	303
2636.47	275
2636.83	253
2637.2	261
2637.56	317
2637.93	315
2638.29	295
2638.66	295
2639.02	243
2639.39	331
2639.75	305
2640.12	307
2640.48	337
2640.84	323
2641.21	369
2641.57	325
2641.94	323
2642.3	333
2642.67	355
2643.03	303
2643.4	341
2643.76	349
2644.13	317
2644.49	381
2644.85	345
2645.22	377
2645.58	375
2645.95	353
2646.31	435
2646.68	379
2647.04	387
2647.4	439
2647.77	403
2648.13	389
2648.5	419
2648.86	421
2649.22	455
2649.59	439
2649.95	449
2650.32	487
2650.68	425
2651.04	523
2651.41	511
2651.77	489
2652.14	469
2652.5	507
2652.86	511
2653.23	555
2653.59	553
2653.95	485
2654.32	581
2654.68	519
2655.05	581
2655.41	521
2655.77	563
2656.14	581
2656.5	623
2656.86	531
2657.23	613
2657.59	605
2657.95	617
2658.32	637
2658.68	623
2659.04	685
2659.41	607
2659.77	733
2660.13	677
2660.5	727
2660.86	651
2661.22	701
2661.59	727
2661.95	717
2662.31	773
2662.68	679
2663.04	781
2663.4	757
2663.76	761
2664.13	767
2664.49	767
2664.85	769
2665.22	829
2665.58	809
2665.94	843
2666.3	833
2666.67	851
2667.03	851
2667.39	895
2667.76	899
2668.12	841
2668.48	819
2668.84	863
2669.21	893
2669.57	869
2669.93	923
2670.29	917
2670.66	935
2671.02	985
2671.38	923
2671.74	943
2672.11	989
2672.47	921
2672.83	903
2673.19	971
2673.56	997
2673.92	981
2674.28	881
2674.64	949
2675	951
2675.37	977
2675.73	993
2676.09	967
2676.45	917
2676.81	1035
2677.18	977
2677.54	899
2677.9	993
2678.26	895
2678.62	959
2678.99	909
2679.35	959
2679.71	961
2680.07	981
2680.43	835
2680.8	935
2681.16	953
2681.52	885
2681.88	915
2682.24	797
2682.6	933
2682.97	845
2683.33	887
2683.69	817
2684.05	851
2684.41	871
2684.77	865
2685.13	859
2685.5	829
2685.86	829
2686.22	711
2686.58	825
2686.94	819
2687.3	753
2687.66	737
2688.03	751
2688.39	757
2688.75	757
2689.11	753
2689.47	697
2689.83	739
2690.19	631
2690.55	715
2690.91	705
2691.28	653
2691.64	631
2692	585
2692.36	681
2692.72	637
2693.08	609
2693.44	631
2693.8	555
2694.16	641
2694.52	551
2694.88	579
2695.24	543
2695.61	589
2695.97	485
2696.33	513
2696.69	543
2697.05	467
2697.41	537
2697.77	451
2698.13	469
2698.49	457
2698.85	453
2699.21	469
2699.57	505
2699.93	419
2700.29	461
2700.65	443
2701.01	425
2701.37	461
2701.73	445
2702.09	423
2702.45	361
2702.81	411
2703.18	345
2703.53	449
2703.89	317
2704.25	427
2704.62	397
2704.98	339
2705.33	385
2705.69	331
2706.06	371
2706.42	327
2706.78	345
2707.13	315
2707.49	333
2707.85	275
2708.22	371
2708.57	313
2708.93	307
2709.29	319
2709.65	261
2710.01	299
2710.37	303
2710.73	299
2711.09	293
2711.45	283
2711.81	251
2712.17	325
2712.53	301
2712.89	267
2713.25	293
2713.61	239
2713.97	271
2714.33	269
2714.69	225
2715.05	269
2715.41	221
2715.76	255
2716.12	257
2716.48	245
2716.84	243
2717.2	227
2717.56	221
2717.92	247
2718.28	273
2718.64	187
2719	273
2719.35	181
2719.71	243
2720.07	217
2720.43	215
2720.79	245
2721.15	191
2721.51	193
2721.87	203
2722.23	229
2722.59	141
2722.94	275
2723.3	163
2723.66	241
2724.02	205
2724.38	231
2724.74	185
2725.1	171
2725.46	201
2725.81	187
2726.17	215
2726.53	161
2726.89	259
2727.25	139
2727.61	213
2727.96	167
2728.32	193
2728.68	211
2729.04	171
2729.4	191
2729.75	203
2730.11	189
2730.47	147
2730.83	217
2731.19	147
2731.55	221
2731.91	147
2732.26	187
2732.62	183
2732.98	149
2733.34	173
2733.69	193
2734.05	157
2734.41	173
2734.77	191
2735.13	159
2735.48	193
2735.84	145
2736.2	179
2736.56	221
2736.91	161
2737.27	187
2737.63	169
2737.99	167
2738.35	193
2738.7	151
2739.06	179
2739.42	175
2739.78	155
2740.13	143
2740.49	175
2740.85	143
2741.21	159
2741.56	183
2741.92	137
2742.28	205
2742.64	123
2742.99	209
2743.35	143
2743.71	155
2744.06	173
2744.42	159
2744.78	123
2745.14	145
2745.49	175
2745.85	133
2746.21	201
2746.57	91
2746.92	175
2747.28	143
2747.64	149
2747.99	161
2748.35	167
2748.71	147
2749.06	135
2749.42	175
2749.78	125
2750.13	195
2750.49	89
2750.85	195
2751.2	153
2751.56	161
2751.92	139
2752.27	167
2752.63	149
2752.99	141
2753.34	167
2753.7	125
2754.06	185
2754.41	85
2754.77	189
2755.13	143
2755.48	135
2755.84	153
2756.2	125
2756.55	151
2756.91	147
2757.26	163
2757.62	139
2757.98	141
2758.33	97
2758.69	181
2759.04	161
2759.4	127
2759.76	159
2760.11	113
2760.47	143
2760.83	147
2761.18	137
2761.54	169
2761.89	139
2762.25	181
2762.61	152.2
2762.96	105
2763.32	167
2763.67	139
2764.03	113
2764.38	157
2764.74	157
2765.1	111
2765.45	169
2765.81	93
2766.16	139
2766.52	121
2766.88	153
2767.23	111
2767.59	139
2767.94	125
2768.3	151
2768.65	159
2769.01	95
2769.36	171
2769.72	93
2770.07	177
2770.43	117
2770.78	165
2771.14	119
2771.49	141
2771.85	121
2772.21	149
2772.56	151
2772.92	89
2773.27	191
2773.63	95
2773.98	171
2774.34	113
2774.69	159
2775.05	139
2775.4	123
2775.76	123
2776.11	159
2776.47	147
2776.82	97
2777.18	181
2777.53	89
2777.89	157
2778.24	111
2778.59	147
2778.95	137
2779.3	119
2779.66	109
2780.01	143
2780.37	121
2780.72	131
2781.08	149
2781.43	97
2781.79	157
2782.14	119
2782.49	173
2782.85	139
2783.2	115
2783.56	119
2783.91	151
2784.27	125
2784.62	167
2784.98	131
2785.33	131
2785.68	139
2786.04	147
2786.39	117
2786.75	163
2787.1	99
2787.46	125
2787.81	141
2788.16	135
2788.52	181
2788.87	97
2789.22	125
2789.58	129
2789.93	139
2790.29	97
2790.64	167
2790.99	101
2791.35	127
2791.7	157
2792.06	109
2792.41	167
2792.76	67
2793.12	155
2793.47	129
2793.82	159
2794.18	97
2794.53	169
2794.88	81
2795.24	141
2795.59	141
2795.95	113
2796.3	163
2796.65	67
2797.01	163
2797.36	115
2797.71	139
2798.07	93
2798.42	161
2798.77	73
2799.13	157
2799.48	123
2799.83	115
2800.19	167
2800.54	69
2800.89	157
2801.24	111
2801.6	161
2801.95	101
2802.3	151
2802.66	107
2803.01	149
2803.36	135
2803.72	109
2804.07	163
2804.42	93
2804.77	165
2805.13	131
2805.48	141
2805.83	123
2806.19	107
2806.54	127
2806.89	147
2807.24	107
2807.6	135
2807.95	149
2808.3	103
2808.65	129
2809.01	139
2809.36	109
2809.71	149
2810.06	109
2810.42	135
2810.77	157
2811.12	107
2811.47	151
2811.83	131
2812.18	133
2812.53	135
2812.88	147
2813.24	99
2813.59	149
2813.94	95
2814.29	139
2814.64	133
2815	125
2815.35	161
2815.7	105
2816.05	135
2816.4	101
2816.76	139
2817.11	117
2817.46	165
2817.81	73
2818.16	175
2818.52	113
2818.87	99
2819.22	155
2819.57	93
2819.92	145
2820.28	95
2820.63	159
2820.98	95
2821.33	161
2821.68	73
2822.03	145
2822.39	119
2822.74	85
2823.09	161
2823.44	71
2823.79	153
2824.14	111
2824.49	153
2824.85	117
2825.2	145
2825.55	81
2825.9	159
2826.25	117
2826.6	127
2826.95	163
2827.31	103
2827.66	163
2828.01	105
2828.36	135
2828.71	137
2829.06	117
2829.41	89
2829.76	159
2830.11	127
2830.46	123
2830.82	137
2831.17	105
2831.52	155
2831.87	111
2832.22	137
2832.57	139
2832.92	101
2833.27	99
2833.62	139
2833.97	125
2834.32	133
2834.68	129
2835.03	101
2835.38	143
2835.73	143
2836.08	107
2836.43	159
2836.78	65
2837.13	119
2837.48	123
2837.83	111
2838.18	133
2838.53	91
2838.88	129
2839.23	121
2839.58	157
2839.93	79
2840.28	161
2840.63	81
2840.98	159
2841.33	151
2841.68	147
2842.03	129
2842.38	71
2842.73	127
2843.08	119
2843.43	153
2843.78	87
2844.13	155
2844.48	91
2844.83	175
2845.18	123
2845.53	113
2845.88	139
2846.23	87
2846.58	143
2846.93	119
2847.28	153
2847.63	75
2847.98	153
2848.33	91
2848.68	151
2849.03	115
2849.38	125
2849.73	131
2850.08	87
2850.43	147
2850.78	139
2851.13	147
2851.48	107
2851.83	151
2852.18	109
2852.53	147
2852.88	101
2853.23	121
2853.57	141
2853.92	111
2854.27	141
2854.62	129
2854.97	119
2855.32	131
2855.67	99
2856.02	121
2856.37	131
2856.72	101
2857.07	121
2857.42	139
2857.76	103
2858.11	117
2858.46	159
2858.81	103
2859.16	157
2859.51	89
2859.86	133
2860.21	159
2860.56	125
2860.91	145
2861.25	131
2861.6	137
2861.95	109
2862.3	145
2862.65	101
2863	179
2863.35	61
2863.69	157
2864.04	119
2864.39	125
2864.74	135
2865.09	105
2865.44	113
2865.78	97
2866.13	135
2866.48	89
2866.83	155
2867.18	53
2867.53	159
2867.88	119
2868.22	125
2868.57	125
2868.92	103
2869.27	115
2869.62	105
2869.96	121
2870.31	83
2870.66	163
2871.01	55
2871.36	157
2871.7	117
2872.05	119
2872.4	135
2872.75	89
2873.1	133
2873.44	141
2873.79	137
2874.14	115
2874.49	133
2874.84	79
2875.18	161
2875.53	117
2875.88	141
2876.23	139
2876.57	97
2876.92	123
2877.27	131
2877.62	119
2877.97	131
2878.31	97
2878.66	91
2879.01	133
2879.36	95
2879.7	111
2880.05	101
2880.4	87
2880.74	129
2881.09	135
2881.44	101
2881.79	143
2882.13	85
2882.48	133
2882.83	129
2883.18	129
2883.52	121
2883.87	113
2884.22	97
2884.56	133
2884.91	137
2885.26	95
2885.61	177
2885.95	69
2886.3	151
2886.65	103
2886.99	137
2887.34	117
2887.69	105
2888.03	117
2888.38	107
2888.73	131
2889.07	79
2889.42	175
2889.77	65
2890.11	155
2890.46	117
2890.81	145
2891.15	117
2891.5	93
2891.85	147
2892.19	135
2892.54	145
2892.89	73
2893.23	157
2893.58	65
2893.93	175
2894.27	99
2894.62	153
2894.96	133
2895.31	103
2895.66	123
2896	115
2896.35	138.97
2896.7	87.7959
2897.04	138.418
2897.39	91.762
2897.73	159.359
2898.08	117.455
2898.43	121.442
2898.77	144.853
2899.12	116.001
2899.46	127.399
2899.81	137.828
2900.16	110.068
2900.5	119.748
2900.85	140.757
2901.19	104.21
2901.54	147.369
2901.88	115.939
2902.23	120.517
2902.58	132.783
2902.92	101.238
2903.27	109.756
2903.61	134.991
2903.96	110.857
2904.31	136.089
2904.65	108.489
2905	132.105
2905.34	126.61
2905.69	107.326
2906.03	129.206
2906.38	128.813
2906.72	105.486
2907.07	98.7929
2907.42	143.252
2907.76	92.795
2908.11	152.787
2908.45	100.998
2908.8	129.287
2909.14	118.101
2909.49	126.68
2909.83	119.636
2910.18	125.018
2910.52	100.699
2910.87	116.404
2911.21	153.75
2911.56	118.052
2911.9	151.148
2912.25	89.9962
2912.59	135.676
2912.94	116.978
2913.28	132.703
2913.63	115.184
2913.97	135.788
2914.32	101.175
2914.66	119.734
2915.01	141.099
2915.35	129.943
2915.7	150.705
2916.04	82.1912
2916.39	122.688
2916.73	113.894
2917.08	131.03
2917.42	100.855
2917.77	123.988
2918.11	118.5
2918.46	132.033
2918.8	127.521
2919.15	111.301
2919.49	134.042
2919.83	92.6196
2920.18	120.065
2920.52	126.211
2920.87	133.508
2921.21	115.857
2921.56	125.219
2921.9	134.626
2922.24	121.641
2922.59	133.011
2922.93	126.663
2923.28	126.988
2923.62	113.063
2923.97	108.722
2924.31	131.434
2924.65	124.233
2925	115.862
2925.34	108.479
2925.69	122.993
2926.03	104.282
2926.38	137.155
2926.72	129.974
2927.06	133.371
2927.41	127.486
2927.75	107.034
2928.09	143.96
2928.44	128.492
2928.78	140.915
2929.13	93.2904
2929.47	126.555
2929.81	93.2223
2930.16	154.667
2930.5	111.476
2930.79	113
2931.14	129
2931.49	79
2931.84	159
2932.19	115
2932.54	137
2932.88	93
2933.23	143
2933.58	101
2933.93	161
2934.28	99
2934.63	111
2934.97	133
2935.32	109
2935.67	131
2936.02	133
2936.37	117
2936.71	133
2937.06	89
2937.41	131
2937.76	129
2938.11	95
2938.46	115
2938.8	137
2939.15	111
2939.5	111
2939.85	139
2940.19	107
2940.54	161
2940.89	89
2941.24	119
2941.59	131
2941.93	113
2942.28	111
2942.63	125
2942.98	105
2943.32	119
2943.67	143
2944.02	105
2944.37	159
2944.72	51
2945.06	149
2945.41	109
2945.76	127
2946.11	115
2946.45	117
2946.8	113
2947.15	119
2947.49	141
2947.84	103
2948.19	163
2948.54	43
2948.88	173
2949.23	109
2949.58	155
2949.93	133
2950.27	123
2950.62	101
2950.97	121
2951.31	127
2951.66	93
2952.01	175
2952.35	53
2952.7	145
2953.05	107
2953.4	129
2953.74	127
2954.09	119
2954.44	137
2954.78	139
2955.13	123
2955.48	135
2955.82	151
2956.17	89
2956.52	165
2956.86	121
2957.21	129
2957.56	125
2957.9	117
2958.25	135
2958.6	163
2958.94	125
2959.29	127
2959.64	109
2959.98	83
2960.33	127
2960.68	117
2961.02	91
2961.37	155
2961.72	87
2962.06	131
2962.41	135
2962.76	101
2963.1	137
2963.45	95
2963.79	121
2964.14	129
2964.49	127
2964.83	83
2965.18	121
2965.52	85
2965.87	137
2966.22	137
2966.56	89
2966.91	139
2967.25	89
2967.6	141
2967.95	93
2968.29	139
2968.64	111
2968.98	149
2969.33	105
2969.68	147
2970.02	129
2970.37	75
2970.71	153
2971.06	85
2971.4	135
2971.75	109
2972.1	139
2972.44	91
2972.79	141
2973.13	93
2973.48	139
2973.82	113
2974.17	107
2974.51	157
2974.86	77
2975.21	135
2975.55	97
2975.9	159
2976.24	93
2976.59	131
2976.93	81
2977.28	149
2977.62	139
2977.97	91
2978.31	163
2978.66	71
2979	151
2979.35	81
2979.69	141
2980.04	129
2980.38	119
2980.73	103
2981.07	143
2981.42	125
2981.76	99
2982.11	145
2982.45	85
2982.8	145
2983.14	91
2983.49	135
2983.83	131
2984.18	95
2984.52	101
2984.87	143
2985.21	133
2985.56	133
2985.9	133
2986.25	99
2986.59	147
2986.94	111
2987.28	109
2987.62	127
2987.97	107
2988.31	99
2988.66	127
2989	123
2989.35	135
2989.69	111
2990.03	105
2990.38	131
2990.72	139
2991.07	101
2991.41	159
2991.76	97
2992.1	117
2992.44	137
2992.79	113
2993.13	137
2993.48	97
2993.82	143
2994.17	113
2994.51	169
2994.85	87
2995.2	141
2995.54	95
2995.89	115
2996.23	115
2996.57	95
2996.92	157
2997.26	75
2997.6	125
2997.95	119
2998.29	155
2998.64	97
2998.98	161
2999.32	85
2999.67	117
