#Acq. time (s)=	30
#Accumulations=	1
#Range (cm-¹)=	1050...3000 (25 s) 
#Windows=	6
#Auto scanning=	Off
#Autofocus=	Off
#AutoExposure=	Off
#Spike filter=	Off
#Delay time (s)=	0
#Binning=	1
#Readout mode=	Signal
#DeNoise=	Off
#ICS correction=	Off
#Dark correction=	Off
#Inst. Process=	Off
#Detector Gain=	High Sensitivity
#Detector ADC=	45 kHz       
#Detector temperature (°C)=	-60.1
#Instrument=	LabRAM
#Detector=	Syncerity
#Objective=	x50LWD
#Grating=	1800
#Filter=	25%
#Laser (nm)=	532
#Hole=	100
#E-Cal_Neon=	0
#StageXY=	Marzhauser
#StageZ=	Marzhauser
#X (µm)=	0
#Y (µm)=	0
#Z (µm)=	-1678.85
#Spectral res.(cm-¹)=	1.9
#Full time(mm:ss)=	2:43
#AC=	Not calibrated
#Project=	
#Sample=	
#Site=	
#Title=	RT
#Remark=	
#Date=	19.02.2026 09:45
#Acquired=	19.02.2026 09:45:27
#Edit:Spike=	19.02.2026 09:46:20
#Edit:Spike=	19.02.2026 09:46:23
#Edit:Spike=	19.02.2026 09:47:14
#Edit:Spike=	19.02.2026 09:47:18
#AxisType[0]=Intens
#AxisUnit[0]=Cnt
#AxisType[1]=Spectr
#AxisUnit[1]=1/cm
1050.13	155
1050.59	113
1051.05	135
1051.51	91
1051.97	139
1052.44	123
1052.9	97
1053.36	147
1053.82	73
1054.28	155
1054.74	101
1055.2	141
1055.67	117
1056.13	119
1056.59	99
1057.05	121
1057.51	123
1057.97	115
1058.43	149
1058.89	75
1059.36	129
1059.82	105
1060.28	125
1060.74	137
1061.2	125
1061.66	103
1062.12	137
1062.58	141
1063.04	143
1063.5	133
1063.96	107
1064.43	115
1064.89	121
1065.35	115
1065.81	157
1066.27	95
1066.73	111
1067.19	135
1067.65	113
1068.11	123
1068.57	85
1069.03	103
1069.49	125
1069.95	127
1070.41	107
1070.87	169
1071.33	109
1071.79	121
1072.25	135
1072.71	127
1073.17	135
1073.63	95
1074.09	127
1074.55	137
1075.01	135
1075.47	119
1075.93	159
1076.39	91
1076.85	133
1077.31	121
1077.77	121
1078.23	145
1078.69	71
1079.15	113
1079.61	123
1080.07	145
1080.53	89
1080.99	139
1081.45	67
1081.91	141
1082.37	113
1082.83	109
1083.29	167
1083.75	65
1084.21	135
1084.66	119
1085.12	137
1085.58	95
1086.04	141
1086.5	99
1086.96	141
1087.42	123
1087.88	101
1088.34	167
1088.8	77
1089.25	149
1089.71	115
1090.17	131
1090.63	99
1091.09	115
1091.55	95
1092.01	137
1092.47	123
1092.92	117
1093.38	139
1093.84	85
1094.3	133
1094.76	113
1095.22	137
1095.68	115
1096.13	101
1096.59	117
1097.05	149
1097.51	103
1097.97	117
1098.43	133
1098.88	99
1099.34	135
1099.8	143
1100.26	125
1100.72	145
1101.17	103
1101.63	119
1102.09	125
1102.55	117
1103.01	123
1103.46	117
1103.92	121
1104.38	123
1104.84	137
1105.29	101
1105.75	153
1106.21	99
1106.67	131
1107.12	137
1107.58	93
1108.04	143
1108.5	107
1108.95	119
1109.41	95
1109.87	165
1110.33	87
1110.78	151
1111.24	105
1111.7	157
1112.16	123
1112.61	83
1113.07	163
1113.53	83
1113.98	127
1114.44	87
1114.9	145
1115.35	97
1115.81	157
1116.27	89
1116.72	135
1117.18	133
1117.64	85
1118.1	155
1118.55	93
1119.01	124.6
1119.47	169
1119.92	121
1120.38	111
1120.84	123
1121.29	95
1121.75	121
1122.2	101
1122.66	99
1123.12	149
1123.57	99
1124.03	149
1124.49	101
1124.94	145
1125.4	113
1125.86	145
1126.31	95
1126.77	133
1127.22	123
1127.68	129
1128.14	137
1128.59	93
1129.05	161
1129.5	107
1129.96	135
1130.41	119
1130.87	127
1131.33	103
1131.78	149
1132.24	109
1132.69	113
1133.15	127
1133.61	117
1134.06	139
1134.52	133
1134.97	117
1135.43	127
1135.88	105
1136.34	109
1136.79	133
1137.25	125
1137.7	145
1138.16	111
1138.61	111
1139.07	107
1139.52	125
1139.98	105
1140.43	145
1140.89	93
1141.34	107
1141.8	131
1142.25	111
1142.71	141
1143.16	103
1143.62	117
1144.07	123
1144.53	137
1144.98	101
1145.44	155
1145.89	73
1146.35	117
1146.8	133
1147.26	111
1147.71	125
1148.16	73
1148.62	135
1149.07	111
1149.53	173
1149.98	81
1150.44	175
1150.89	85
1151.35	155
1151.8	129
1152.25	113
1152.71	133
1153.16	61
1153.62	141
1154.07	133
1154.52	171
1154.98	77
1155.43	137
1155.89	79
1156.34	139
1156.79	111
1157.25	109
1157.7	135
1158.16	69
1158.61	147
1159.06	109
1159.52	131
1159.97	97
1160.42	137
1160.88	91
1161.33	135
1161.78	111
1162.24	103
1162.69	139
1163.14	95
1163.6	169
1164.05	123
1164.5	119
1164.96	95
1165.41	135
1165.86	103
1166.32	155
1166.77	101
1167.22	131
1167.68	137
1168.13	93
1168.58	133
1169.04	117
1169.49	117
1169.94	105
1170.39	97
1170.85	101
1171.3	137
1171.75	101
1172.2	115
1172.66	113
1173.11	107
1173.56	107
1174.01	129
1174.47	101
1174.92	137
1175.37	97
1175.82	133
1176.28	131
1176.73	93
1177.18	127
1177.63	119
1178.09	129
1178.54	125
1178.99	141
1179.44	85
1179.89	165
1180.35	69
1180.8	139
1181.25	101
1181.7	103
1182.15	145
1182.61	101
1183.06	117
1183.51	91
1183.96	139
1184.41	71
1184.87	165
1185.32	65
1185.77	135
1186.22	97
1186.67	95
1187.12	147
1187.58	93
1188.03	131
1188.48	113
1188.93	151
1189.38	105
1189.83	149
1190.28	75
1190.73	151
1191.19	115
1191.64	103
1192.09	139
1192.54	95
1192.99	133
1193.44	101
1193.89	143
1194.34	93
1194.8	141
1195.25	71
1195.7	135
1196.15	115
1196.6	105
1197.05	141
1197.5	89
1197.95	143
1198.4	123
1198.85	141
1199.3	111
1199.75	113
1200.2	83
1200.66	139
1201.11	119
1201.56	123
1202.01	129
1202.46	81
1202.91	131
1203.36	109
1203.81	133
1204.26	115
1204.71	115
1205.16	101
1205.61	133
1206.06	117
1206.51	117
1206.96	127
1207.41	107
1207.86	123
1208.31	139
1208.76	97
1209.21	127
1209.66	95
1210.11	113
1210.56	127
1211.01	115
1211.46	131
1211.91	89
1212.36	93
1212.81	105
1213.26	125
1213.71	101
1214.16	159
1214.61	89
1215.05	109
1215.51	119
1215.95	109
1216.4	123
1216.85	115
1217.3	115
1217.75	127
1218.2	135
1218.65	101
1219.1	167
1219.55	65
1220	139
1220.45	125
1220.9	131
1221.34	117
1221.79	83
1222.24	129
1222.69	107
1223.14	139
1223.59	59
1224.04	155
1224.49	73
1224.94	133
1225.38	123
1225.83	101
1226.28	129
1226.73	49
1227.18	139
1227.63	113
1228.07	143
1228.52	87
1228.97	145
1229.42	97
1229.87	127
1230.32	113
1230.76	107
1231.21	135
1231.66	83
1232.11	119
1232.56	139
1233.01	133
1233.45	97
1233.9	117
1234.35	99
1234.8	145
1235.25	101
1235.69	111
1236.14	141
1236.59	95
1237.04	107
1237.49	119
1237.93	105
1238.38	143
1238.83	127
1239.28	117
1239.72	145
1240.17	101
1240.62	119
1241.07	141
1241.51	103
1241.96	113
1242.41	125
1242.86	101
1243.3	145
1243.75	95
1244.2	133
1244.65	129
1245.09	93
1245.54	131
1245.99	131
1246.44	111
1246.88	105
1247.33	151
1247.78	107
1248.22	157
1248.67	71
1249.12	123
1249.56	115
1250.01	123
1250.46	115
1250.9	101
1251.35	123
1251.8	115
1252.24	153
1252.69	73
1253.14	165
1253.58	61
1254.03	159
1254.48	119
1254.92	115
1255.37	143
1255.82	103
1256.26	125
1256.71	101
1257.15	145
1257.6	93
1258.05	165
1258.49	79
1258.94	159
1259.39	111
1259.83	127
1260.28	161
1260.72	87
1261.17	123
1261.62	109
1262.06	155
1262.51	97
1262.95	153
1263.4	57
1263.85	153
1264.29	107
1264.74	125
1265.18	133
1265.63	109
1266.07	145
1266.52	125
1266.97	143
1267.41	113
1267.86	133
1268.3	95
1268.75	165
1269.19	137
1269.64	129
1270.08	135
1270.53	103
1270.97	135
1271.42	117
1271.86	111
1272.31	147
1272.76	111
1273.2	97
1273.64	137
1274.09	123
1274.53	127
1274.98	129
1275.42	111
1275.87	115
1276.31	147
1276.76	107
1277.2	165
1277.65	83
1278.09	123
1278.54	133
1278.98	131
1279.43	117
1279.87	109
1280.32	103
1280.76	113
1281.21	133
1281.65	107
1282.09	169
1282.54	89
1282.98	127
1283.43	121
1283.87	119
1284.32	133
1284.76	107
1285.21	131
1285.65	125
1286.09	143
1286.54	93
1286.98	153
1287.42	99
1287.87	147
1288.31	119
1288.76	143
1289.2	125
1289.64	87
1290.09	115
1290.53	123
1290.98	157
1291.42	77
1291.86	185
1292.31	85
1292.75	177
1293.19	129
1293.64	129
1294.08	121
1294.53	81
1294.97	135
1295.41	97
1295.85	143
1296.3	83
1296.74	143
1297.19	99
1297.63	137
1298.07	109
1298.51	123
1298.96	135
1299.4	73
1299.84	119
1300.29	111
1300.73	129
1301.17	89
1301.62	133
1302.06	93
1302.5	139
1302.94	127
1303.39	125
1303.83	133
1304.27	95
1304.72	125
1305.16	123
1305.6	123
1306.04	113
1306.49	131
1306.93	115
1307.37	153
1307.81	99
1308.26	147
1308.7	125
1309.14	83
1309.58	119
1310.03	127
1310.47	113
1310.91	125
1311.35	113
1311.8	131
1312.24	137
1312.68	115
1313.12	109
1313.56	153
1314	109
1314.45	125
1314.89	139
1315.33	99
1315.77	173
1316.22	115
1316.66	151
1317.1	139
1317.54	131
1317.98	147
1318.43	135
1318.87	127
1319.31	105
1319.75	145
1320.19	111
1320.63	193
1321.07	65
1321.51	153
1321.96	131
1322.4	129
1322.84	127
1323.28	121
1323.72	121
1324.16	117
1324.6	163
1325.05	103
1325.49	183
1325.93	73
1326.37	171
1326.81	117
1327.25	145
1327.69	143
1328.13	121
1328.57	139
1329.02	137
1329.45	145
1329.9	109
1330.34	169
1330.78	91
1331.22	185
1331.66	157
1332.1	167
1332.54	167
1332.98	147
1333.42	129
1333.86	141
1334.3	155
1334.74	135
1335.18	177
1335.62	107
1336.07	179
1336.5	163
1336.95	165
1337.39	147
1337.83	157
1338.27	177
1338.71	187
1339.15	167
1339.59	165
1340.03	161
1340.47	141
1340.91	177
1341.35	195
1341.79	171
1342.23	185
1342.67	159
1343.11	179
1343.55	199
1343.99	179
1344.43	209
1344.86	155
1345.31	205
1345.74	211
1346.18	205
1346.62	185
1347.06	183
1347.5	185
1347.94	183
1348.38	205
1348.82	159
1349.26	219
1349.7	133
1350.14	195
1350.58	173
1351.02	165
1351.46	149
1351.9	181
1352.33	161
1352.77	167
1353.21	163
1353.65	133
1354.09	195
1354.53	127
1354.97	187
1355.41	131
1355.85	201
1356.29	149
1356.72	163
1357.16	163
1357.6	165
1358.04	173
1358.48	117
1358.92	197
1359.36	95
1359.79	175
1360.23	97
1360.67	149
1361.11	147
1361.55	133
1361.99	111
1362.43	145
1362.87	163
1363.3	77
1363.74	157
1364.18	107
1364.62	171
1365.06	127
1365.49	147
1365.93	145
1366.37	115
1366.81	135
1367.25	145
1367.68	151
1368.12	109
1368.56	137
1369	113
1369.44	165
1369.87	107
1370.31	129
1370.75	139
1371.19	107
1371.62	109
1372.06	147
1372.5	115
1372.94	145
1373.37	119
1373.81	103
1374.25	151
1374.69	119
1375.12	115
1375.56	127
1376	117
1376.44	109
1376.87	131
1377.31	117
1377.75	155
1378.19	93
1378.62	123
1379.06	135
1379.5	103
1379.93	115
1380.37	137
1380.81	97
1381.25	115
1381.68	137
1382.12	115
1382.56	157
1382.99	69
1383.43	139
1383.87	115
1384.3	141
1384.74	113
1385.18	129
1385.61	103
1386.05	95
1386.49	155
1386.92	93
1387.36	159
1387.8	53
1388.23	139
1388.67	111
1389.1	135
1389.54	119
1389.98	127
1390.41	119
1390.85	103
1391.29	143
1391.72	71
1392.16	173
1392.59	49
1393.03	159
1393.47	123
1393.9	129
1394.34	129
1394.77	113
1395.21	133
1395.65	141
1396.08	129
1396.52	101
1396.95	161
1397.39	53
1397.82	155
1398.26	123
1398.7	139
1399.13	103
1399.57	93
1400	107
1400.44	115
1400.87	127
1401.31	103
1401.74	129
1402.18	69
1402.62	165
1403.05	115
1403.49	123
1403.92	135
1404.36	93
1404.79	131
1405.23	133
1405.66	125
1406.1	131
1406.53	117
1406.97	89
1407.4	133
1407.84	115
1408.27	123
1408.71	125
1409.14	111
1409.58	131
1410.01	137
1410.45	99
1410.88	147
1411.31	85
1411.75	109
1412.18	115
1412.62	127
1413.05	107
1413.49	117
1413.92	121
1414.36	147
1414.79	135
1415.23	85
1415.66	157
1416.1	81
1416.53	145
1416.96	117
1417.4	139
1417.83	107
1418.27	113
1418.7	115
1419.13	125
1419.57	129
1420	71
1420.44	151
1420.87	79
1421.3	141
1421.74	93
1422.17	137
1422.61	107
1423.04	109
1423.47	107
1423.91	127
1424.34	125
1424.77	79
1425.21	157
1425.64	81
1426.07	171
1426.51	69
1426.94	141
1427.38	113
1427.81	107
1428.24	117
1428.68	135
1429.11	121
1429.54	105
1429.98	169
1430.41	79
1430.84	143
1431.28	97
1431.71	129
1432.14	155
1432.57	113
1433.01	113
1433.44	115
1433.87	119
1434.31	115
1434.74	113
1435.17	97
1435.61	123
1436.04	99
1436.47	103
1436.9	135
1437.34	87
1437.77	99
1438.2	135
1438.63	113
1439.07	149
1439.5	103
1439.93	107
1440.36	133
1440.8	115
1441.23	121
1441.66	135
1442.09	101
1442.53	109
1442.96	141
1443.39	95
1443.82	135
1444.26	73
1444.69	125
1445.12	125
1445.55	121
1445.98	127
1446.42	135
1446.85	87
1447.28	111
1447.71	125
1448.14	105
1448.57	143
1449.01	49
1449.44	115
1449.87	105
1450.3	149
1450.73	103
1451.17	133
1451.6	81
1452.03	95
1452.46	119
1452.89	97
1453.32	169
1453.76	65
1454.19	165
1454.62	113
1455.05	159
1455.48	111
1455.91	119
1456.34	93
1456.77	115
1457.21	145
1457.64	95
1458.07	157
1458.5	61.0686
1458.93	140.582
1459.36	116.686
1459.79	117.098
1460.22	101.763
1460.65	105.157
1461.08	113.793
1461.52	137.238
1461.95	119.889
1462.38	109.559
1462.81	135.697
1463.24	72.2081
1463.67	131.898
1464.1	104.252
1464.53	118.188
1464.96	120.965
1465.39	112.226
1465.82	133.895
1466.25	131.384
1466.68	120.708
1467.11	127.635
1467.54	122.09
1467.98	90.3888
1468.41	128.771
1468.84	114.937
1469.27	130.176
1469.7	116.884
1470.13	97.7776
1470.56	117.559
1470.99	133.122
1471.42	106.774
1471.85	118.295
1472.28	106.566
1472.71	102.976
1473.14	125.02
1473.57	115.28
1474	101.756
1474.43	114.575
1474.86	90.9743
1475.29	118.886
1475.72	129.763
1476.15	89.5819
1476.58	134.678
1477.01	107.219
1477.44	132.746
1477.87	116.817
1478.3	108.659
1478.72	111.312
1479.15	123.782
1479.58	103.657
1480.01	111.692
1480.44	127.681
1480.87	91.3395
1481.3	134.971
1481.73	118.348
1482.16	115.814
1482.59	138.445
1483.02	90.721
1483.45	119.058
1483.88	101.255
1484.31	101.48
1484.74	117.765
1485.17	106.908
1485.59	101.465
1486.02	116.764
1486.45	99.9369
1486.88	113.948
1487.31	140.365
1487.74	89.9996
1488.17	108.489
1488.6	104.993
1489.02	121.19
1489.45	138.122
1489.88	121.291
1490.31	116.814
1490.74	122.191
1491.17	125.392
1491.6	124.452
1492.03	129.654
1492.45	97.3161
1492.88	118.651
1493.31	118.068
1493.74	116.46
1494.17	123.961
1494.6	118.175
1495.02	107.772
1495.45	114.45
1495.88	113.972
1496.31	112.681
1496.74	118.397
1497.17	99.787
1497.59	102.809
1498.02	121.907
1498.45	117.366
1498.88	119.474
1499.31	108.217
1499.73	103.828
1500.16	112.328
1500.59	117.271
1501.02	125.49
1501.45	121.416
1501.87	101.286
1502.13	79
1502.56	139
1502.99	133
1503.43	131
1503.86	129
1504.29	97
1504.72	121
1505.16	121
1505.59	109
1506.02	125
1506.46	71
1506.89	97
1507.32	139
1507.75	119
1508.19	103
1508.62	111
1509.05	101
1509.49	105
1509.92	133
1510.35	71
1510.78	159
1511.21	97
1511.65	149
1512.08	123
1512.51	139
1512.94	85
1513.38	119
1513.81	95
1514.24	127
1514.67	143
1515.11	79
1515.54	157
1515.97	79
1516.4	149
1516.83	81
1517.27	141
1517.7	99
1518.13	119
1518.56	73
1518.99	137
1519.42	133
1519.86	79
1520.29	153
1520.72	65
1521.15	137
1521.58	81
1522.01	131
1522.45	101
1522.88	117
1523.31	85
1523.74	123
1524.17	119
1524.6	69
1525.04	151
1525.47	85
1525.9	145
1526.33	97
1526.76	157
1527.19	117
1527.62	113
1528.05	99
1528.49	137
1528.92	115
1529.35	125
1529.78	143
1530.21	95
1530.64	127
1531.07	97
1531.5	137
1531.93	119
1532.37	105
1532.8	101
1533.23	149
1533.66	107
1534.09	129
1534.52	127
1534.95	103
1535.38	123
1535.81	133
1536.24	121
1536.67	127
1537.1	103
1537.53	123
1537.96	157
1538.39	129
1538.82	133
1539.26	119
1539.68	117
1540.12	123
1540.55	125
1540.98	105
1541.41	155
1541.84	99
1542.27	121
1542.7	127
1543.13	117
1543.56	135
1543.99	77
1544.42	129
1544.85	115
1545.28	149
1545.71	89
1546.14	153
1546.57	91
1547	113
1547.43	135
1547.86	101
1548.29	145
1548.72	59
1549.14	141
1549.57	125
1550.01	125
1550.43	99
1550.86	163
1551.29	87
1551.72	127
1552.15	133
1552.58	135
1553.01	163
1553.44	95
1553.87	131
1554.3	147
1554.73	169
1555.16	107
1555.59	153
1556.01	89
1556.44	147
1556.87	129
1557.3	143
1557.73	155
1558.16	59
1558.59	149
1559.02	107
1559.45	139
1559.88	107
1560.3	133
1560.73	97
1561.16	147
1561.59	135
1562.02	119
1562.45	161
1562.88	93
1563.31	153
1563.73	139
1564.16	139
1564.59	119
1565.02	131
1565.45	139
1565.88	139
1566.3	129
1566.73	127
1567.16	157
1567.59	105
1568.02	153
1568.45	145
1568.88	149
1569.3	149
1569.73	147
1570.16	139
1570.59	157
1571.01	117
1571.44	163
1571.87	161
1572.3	133
1572.73	185
1573.15	189
1573.58	179
1574.01	181
1574.44	163
1574.87	175
1575.29	193
1575.72	163
1576.15	219
1576.58	173
1577	193
1577.43	197
1577.86	209
1578.29	173
1578.71	235
1579.14	197
1579.57	241
1580	237
1580.42	209
1580.85	247
1581.28	249
1581.71	239
1582.13	227
1582.56	259
1582.99	253
1583.41	307
1583.84	219
1584.27	323
1584.7	289
1585.12	297
1585.55	315
1585.98	309
1586.4	335
1586.83	315
1587.26	415
1587.68	365
1588.11	427
1588.54	395
1588.96	487
1589.39	529
1589.82	555
1590.24	663
1590.67	579
1591.1	669
1591.52	733
1591.95	811
1592.38	765
1592.8	845
1593.23	785
1593.65	831
1594.08	801
1594.51	811
1594.93	745
1595.36	667
1595.79	645
1596.21	571
1596.64	579
1597.06	515
1597.49	503
1597.92	417
1598.34	417
1598.77	389
1599.19	357
1599.62	359
1600.05	297
1600.47	321
1600.9	269
1601.32	297
1601.75	247
1602.18	229
1602.6	185
1603.03	211
1603.45	209
1603.88	207
1604.3	203
1604.73	167
1605.15	195
1605.58	201
1606	173
1606.43	183
1606.86	139
1607.28	143
1607.71	167
1608.13	173
1608.56	159
1608.98	149
1609.41	143
1609.83	145
1610.26	195
1610.68	119
1611.11	189
1611.53	111
1611.96	147
1612.38	151
1612.81	141
1613.23	159
1613.66	133
1614.08	121
1614.51	133
1614.93	151
1615.36	101
1615.78	179
1616.21	101
1616.63	171
1617.06	127
1617.48	147
1617.9	131
1618.33	115
1618.75	117
1619.18	157
1619.6	153
1620.03	95
1620.45	171
1620.88	91
1621.3	161
1621.72	109
1622.15	167
1622.57	139
1623	133
1623.42	133
1623.85	155
1624.27	161
1624.69	75
1625.12	179
1625.54	91
1625.97	159
1626.39	103
1626.81	143
1627.24	145
1627.66	125
1628.08	135
1628.51	139
1628.93	143
1629.36	99
1629.78	161
1630.2	83
1630.63	141
1631.05	109
1631.47	141
1631.9	163
1632.32	113
1632.74	133
1633.17	133
1633.59	131
1634.01	103
1634.44	127
1634.86	89
1635.28	145
1635.71	109
1636.13	121
1636.55	145
1636.98	119
1637.4	121
1637.82	127
1638.25	121
1638.67	139
1639.09	127
1639.51	121
1639.94	143
1640.36	105
1640.78	111
1641.21	115
1641.63	109
1642.05	99
1642.47	127
1642.9	121
1643.32	159
1643.74	123
1644.17	117
1644.59	135
1645.01	133
1645.43	105
1645.86	157
1646.28	101
1646.7	107
1647.12	127
1647.55	99
1647.97	141
1648.39	85
1648.81	145
1649.23	121
1649.66	147
1650.08	91
1650.5	125
1650.92	105
1651.35	121
1651.77	139
1652.19	93
1652.61	145
1653.03	57
1653.45	153
1653.88	107
1654.3	135
1654.72	113
1655.14	131
1655.56	93
1655.99	111
1656.41	113
1656.83	105
1657.25	153
1657.67	61
1658.09	123
1658.52	115
1658.94	139
1659.36	97
1659.78	149
1660.2	111
1660.62	127
1661.04	131
1661.47	111
1661.89	143
1662.31	41
1662.73	139
1663.15	95
1663.57	127
1663.99	105
1664.41	137
1664.83	89
1665.26	123
1665.68	127
1666.1	93
1666.52	151
1666.94	67
1667.36	141
1667.78	115
1668.2	129
1668.62	99
1669.04	101
1669.46	107
1669.89	137
1670.31	125
1670.73	105
1671.15	123
1671.57	89
1671.99	129
1672.41	111
1672.83	99
1673.25	109
1673.67	89
1674.09	113
1674.51	135
1674.93	117
1675.35	113
1675.77	103
1676.19	113
1676.61	141
1677.03	123
1677.45	103
1677.87	111
1678.29	99
1678.71	129
1679.13	139
1679.55	95
1679.97	139
1680.39	121
1680.81	115
1681.23	129
1681.65	153
1682.07	93
1682.49	143
1682.91	101
1683.33	113
1683.75	119
1684.17	99
1684.59	145
1685.01	97
1685.43	119
1685.85	111
1686.27	153
1686.69	99
1687.11	149
1687.53	67
1687.95	137
1688.37	105
1688.78	83
1689.2	155
1689.62	73
1690.04	133
1690.46	89
1690.88	147
1691.3	101
1691.72	129
1692.14	75
1692.56	139
1692.98	119
1693.39	73
1693.81	139
1694.23	79
1694.65	139
1695.07	87
1695.49	131
1695.91	99
1696.33	137
1696.75	79
1697.16	129
1697.58	129
1698	107
1698.42	149
1698.84	67
1699.26	127
1699.68	83
1700.09	117
1700.51	129
1700.93	113
1701.35	69
1701.77	137
1702.19	115
1702.6	113
1703.02	135
1703.44	83
1703.86	135
1704.28	109
1704.69	131
1705.11	123
1705.53	105
1705.95	81
1706.37	147
1706.78	117
1707.2	111
1707.62	113
1708.04	101
1708.46	123
1708.87	113
1709.29	103
1709.71	145
1710.13	87
1710.54	99
1710.96	123
1711.38	111
1711.8	109
1712.22	101
1712.63	105
1713.05	117
1713.47	155
1713.89	99
1714.3	165
1714.72	73
1715.14	125
1715.56	137
1715.97	115
1716.39	127
1716.81	83
1717.22	115
1717.64	117
1718.06	135
1718.48	77
1718.89	149
1719.31	69
1719.73	143
1720.14	115
1720.56	95
1720.98	123
1721.39	83
1721.81	123
1722.23	101
1722.64	133
1723.06	67
1723.48	165
1723.89	71
1724.31	137
1724.73	101
1725.14	109
1725.56	119
1725.98	81
1726.39	111
1726.81	99
1727.23	149
1727.64	79
1728.06	155
1728.48	79
1728.89	149
1729.31	91
1729.72	123
1730.14	119
1730.56	93
1730.97	133
1731.39	113
1731.8	137
1732.22	67
1732.64	119
1733.05	87
1733.47	147
1733.89	89
1734.3	109
1734.72	135
1735.13	81
1735.55	121
1735.96	115
1736.38	119
1736.8	109
1737.21	121
1737.63	93
1738.04	145
1738.46	101
1738.87	117
1739.29	123
1739.71	109
1740.12	105
1740.54	135
1740.95	99
1741.37	117
1741.78	95
1742.2	93
1742.61	133
1743.03	101
1743.44	95
1743.86	131
1744.27	101
1744.69	103
1745.1	133
1745.52	105
1745.93	133
1746.35	83
1746.77	127
1747.18	113
1747.59	91
1748.01	115
1748.42	123
1748.84	107
1749.25	97
1749.67	141
1750.08	85
1750.5	155
1750.91	77
1751.33	127
1751.74	115
1752.16	111
1752.57	121
1752.99	97
1753.4	103
1753.81	95
1754.23	151
1754.64	85
1755.06	169
1755.47	65
1755.89	141
1756.3	113
1756.72	109
1757.13	141
1757.54	101
1757.96	111
1758.37	83
1758.78	125
1759.2	75
1759.61	153
1760.03	65
1760.44	149
1760.86	89
1761.27	97
1761.68	125
1762.1	101
1762.51	115
1762.92	101
1763.34	113
1763.75	97
1764.17	143
1764.58	47
1764.99	127
1765.41	107
1765.82	119
1766.23	113
1766.65	107
1767.06	93
1767.47	107
1767.89	119
1768.3	97
1768.71	133
1769.13	39
1769.54	137
1769.95	103
1770.37	125
1770.78	113
1771.19	101
1771.61	127
1772.02	129
1772.43	129
1772.85	119
1773.26	101
1773.67	95
1774.09	141
1774.5	119
1774.91	119
1775.32	119
1775.74	79
1776.15	119
1776.56	121
1776.97	101
1777.39	149
1777.8	79
1778.21	105
1778.62	111
1779.04	127
1779.45	97
1779.86	109
1780.28	77
1780.69	117
1781.1	139
1781.51	75
1781.92	135
1782.34	77
1782.75	123
1783.16	111
1783.57	127
1783.99	93
1784.4	129
1784.81	101
1785.22	121
1785.63	149
1786.05	77
1786.46	165
1786.87	83
1787.28	139
1787.69	97
1788.11	151
1788.52	95
1788.93	117
1789.34	85
1789.75	125
1790.17	119
1790.58	75
1790.99	159
1791.4	75
1791.81	129
1792.22	77
1792.63	135
1793.05	105
1793.46	131
1793.87	75
1794.28	143
1794.69	125
1795.1	69
1795.52	137
1795.93	95
1796.34	121
1796.75	95
1797.16	123
1797.57	127
1797.98	103
1798.39	73
1798.81	125
1799.22	109
1799.63	99
1800.04	143
1800.45	99
1800.86	125
1801.27	83
1801.68	113
1802.09	127
1802.5	109
1802.91	63
1803.32	145
1803.73	103
1804.15	117
1804.56	123
1804.97	97
1805.38	121
1805.79	103
1806.2	103
1806.61	139
1807.02	95
1807.43	93
1807.84	135
1808.25	111
1808.66	127
1809.07	93
1809.48	85
1809.89	111
1810.3	117
1810.71	103
1811.12	141
1811.53	73
1811.94	101
1812.35	135
1812.76	105
1813.17	129
1813.58	75
1813.99	111
1814.4	113
1814.81	145
1815.22	85
1815.63	143
1816.04	63
1816.45	129
1816.86	115
1817.27	107
1817.68	129
1818.09	63
1818.5	107
1818.91	109
1819.32	129
1819.73	67
1820.14	155
1820.55	71
1820.96	127
1821.37	111
1821.78	113
1822.19	129
1822.6	55
1823.01	129
1823.42	99
1823.82	147
1824.23	73
1824.64	155
1825.05	71
1825.46	145
1825.87	99
1826.28	95
1826.69	137
1827.1	55
1827.51	123
1827.91	101
1828.32	123
1828.73	81
1829.14	135
1829.55	83
1829.96	139
1830.37	97
1830.78	99
1831.18	151
1831.59	79
1832	141
1832.41	103
1832.82	121
1833.23	87
1833.64	125
1834.05	89
1834.45	143
1834.86	113
1835.27	113
1835.68	121
1836.09	81
1836.49	127
1836.9	129
1837.31	99
1837.72	93
1838.13	107
1838.53	101
1838.94	135
1839.35	107
1839.76	105
1840.17	121
1840.58	93
1840.98	113
1841.39	117
1841.8	89
1842.21	125
1842.61	93
1843.02	119
1843.43	113
1843.84	99
1844.25	109
1844.65	121
1845.06	97
1845.47	103
1845.88	135
1846.28	93.0239
1846.69	158.257
1847.1	97.4519
1847.51	128.129
1847.91	102.922
1848.32	106.524
1848.73	113.79
1849.14	103.742
1849.54	113.441
1849.95	95.2587
1850.36	141.965
1850.77	84.1478
1851.17	146.192
1851.58	65.3213
1851.99	125.47
1852.39	107.931
1852.8	95.2027
1853.21	119.079
1853.62	99.0165
1854.02	119.238
1854.43	82.28
1854.84	134.674
1855.24	84.679
1855.65	143.688
1856.06	68.661
1856.46	126.976
1856.87	116.313
1857.28	103.148
1857.68	123.8
1858.09	99.0798
1858.5	104.966
1858.9	89.2128
1859.31	136.427
1859.72	109.32
1860.12	139.928
1860.53	81.1661
1860.94	123.358
1861.34	102.702
1861.75	121.444
1862.15	116.066
1862.56	116.774
1862.97	86.943
1863.37	104.093
1863.78	117.761
1864.19	106.391
1864.59	124.965
1865	68.7065
1865.4	123.209
1865.81	115.087
1866.22	123.784
1866.62	104.739
1867.03	109.421
1867.43	102.809
1867.84	112.059
1868.25	122.579
1868.65	115.887
1869.06	122.346
1869.46	74.1803
1869.87	122.446
1870.28	113.598
1870.68	127.177
1871.09	108.578
1871.49	116.048
1871.9	109.044
1872.3	116.803
1872.71	115.279
1873.12	125.755
1873.52	107.402
1873.93	101.177
1874.33	103.913
1874.74	115.834
1875.14	122.283
1875.55	104.683
1875.95	102.193
1876.36	111.693
1876.76	111.63
1877.17	104.481
1877.57	115.454
1877.98	104.843
1878.38	103.732
1878.79	96.0837
1879.19	118.252
1879.6	112.39
1880	93.7579
1880.41	94.1656
1880.81	125.65
1881.22	124.21
1881.63	111.61
1882.03	114.731
1882.43	124.305
1882.84	132.896
1883.24	112.438
1883.65	121.746
1884.05	116.754
1884.46	106.789
1884.86	109.932
1885.27	117.514
1885.67	108.929
1886.08	118.971
1886.48	103.03
1886.89	123.256
1887.29	115.251
1887.69	94.1864
1888.1	120.223
1888.5	121.986
1888.85	95
1889.26	143
1889.67	85
1890.08	103
1890.49	123
1890.9	107
1891.3	113
1891.71	125
1892.12	93
1892.53	107
1892.94	133
1893.35	89
1893.76	151
1894.17	85
1894.58	101
1894.99	119
1895.4	101
1895.81	111
1896.22	133
1896.62	111
1897.03	113
1897.44	121
1897.85	91
1898.26	159
1898.67	73
1899.08	147
1899.49	105
1899.9	107
1900.3	93
1900.71	111
1901.12	93
1901.53	89
1901.94	125
1902.35	81
1902.75	153
1903.16	55
1903.57	149
1903.98	99
1904.39	113
1904.8	103
1905.21	123
1905.61	93
1906.02	103
1906.43	119
1906.84	71
1907.25	141
1907.66	49
1908.06	145
1908.47	111
1908.88	117
1909.29	113
1909.7	99
1910.1	105
1910.51	111
1910.92	135
1911.33	83
1911.73	137
1912.14	57
1912.55	143
1912.96	95
1913.37	111
1913.77	111
1914.18	101
1914.59	115
1915	121
1915.4	117
1915.81	91
1916.22	135
1916.63	63
1917.03	147
1917.44	89
1917.85	119
1918.26	111
1918.66	115
1919.07	111
1919.48	145
1919.89	109
1920.29	95
1920.7	127
1921.11	65
1921.51	129
1921.92	101
1922.33	113
1922.73	109
1923.14	85
1923.55	131
1923.96	137
1924.36	89
1924.77	111
1925.18	95
1925.58	87
1925.99	111
1926.4	127
1926.8	109
1927.21	109
1927.62	93
1928.02	139
1928.43	133
1928.84	87
1929.24	129
1929.65	93
1930.06	117
1930.46	109
1930.87	105
1931.28	97
1931.68	129
1932.09	103
1932.49	123
1932.9	131
1933.31	95
1933.71	143
1934.12	71
1934.53	127
1934.93	105
1935.34	123
1935.74	97
1936.15	113
1936.56	93
1936.96	127
1937.37	127
1937.78	73
1938.18	137
1938.59	79
1938.99	137
1939.4	115
1939.8	121
1940.21	93
1940.62	123
1941.02	79
1941.43	121
1941.83	139
1942.24	71
1942.64	161
1943.05	57
1943.45	129
1943.86	75
1944.27	139
1944.67	125
1945.08	109
1945.48	119
1945.89	137
1946.29	127
1946.7	65
1947.1	157
1947.51	53
1947.91	129
1948.32	83
1948.72	115
1949.13	135
1949.53	105
1949.94	83
1950.34	141
1950.75	123
1951.15	85
1951.56	147
1951.96	83
1952.37	133
1952.77	95
1953.18	137
1953.58	129
1953.99	121
1954.39	97
1954.8	129
1955.2	107
1955.61	95
1956.01	143
1956.42	85
1956.82	131
1957.23	79
1957.63	115
1958.03	135
1958.44	89
1958.84	95
1959.25	121
1959.65	109
1960.06	111
1960.46	121
1960.86	115
1961.27	119
1961.67	113
1962.08	101
1962.48	149
1962.89	93
1963.29	99
1963.69	137
1964.1	111
1964.5	129
1964.91	95
1965.31	111
1965.71	119
1966.12	121
1966.52	85
1966.93	155
1967.33	79
1967.73	101
1968.14	111
1968.54	109
1968.94	145
1969.35	63
1969.75	135
1970.15	97
1970.56	129
1970.96	77
1971.37	145
1971.77	53
1972.17	121
1972.58	123
1972.98	107
1973.38	135
1973.79	73
1974.19	139
1974.59	121
1974.99	143
1975.4	65
1975.8	151
1976.21	73
1976.61	127
1977.01	121
1977.41	113
1977.82	131
1978.22	55
1978.62	147
1979.03	101
1979.43	141
1979.83	81
1980.24	149
1980.64	75
1981.04	145
1981.44	117
1981.85	105
1982.25	135
1982.65	71
1983.05	120.44
1983.46	147
1983.86	144.2
1984.26	93
1984.66	121
1985.07	89
1985.47	145
1985.87	107
1986.27	107
1986.68	123
1987.08	93
1987.48	121
1987.88	117
1988.29	117
1988.69	91
1989.09	109
1989.49	89
1989.89	141
1990.3	89
1990.7	101
1991.1	121
1991.5	93
1991.9	107
1992.31	133
1992.71	109
1993.11	119
1993.51	103
1993.91	111
1994.32	133
1994.72	107
1995.12	117
1995.52	137
1995.92	103
1996.32	125
1996.73	135
1997.13	95
1997.53	169
1997.93	91
1998.33	117
1998.73	119
1999.14	105
1999.54	115
1999.94	129
2000.34	79
2000.74	107
2001.14	137
2001.54	83
2001.94	151
2002.35	53
2002.75	149
2003.15	107
2003.55	109
2003.95	109
2004.35	103
2004.75	101
2005.15	93
2005.55	143
2005.96	89
2006.36	145
2006.76	67
2007.16	133
2007.56	111
2007.96	93
2008.36	129
2008.76	93
2009.16	123
2009.56	107
2009.96	117
2010.36	81
2010.76	167
2011.16	67
2011.57	145
2011.97	107
2012.37	119
2012.77	135
2013.17	107
2013.57	107
2013.97	97
2014.37	141
2014.77	107
2015.17	163
2015.57	49
2015.97	141
2016.37	109
2016.77	115
2017.17	141
2017.57	101
2017.97	113
2018.37	109
2018.77	139
2019.17	99
2019.57	147
2019.97	73
2020.37	151
2020.77	141
2021.17	111
2021.57	133
2021.97	99
2022.37	135
2022.77	137
2023.17	97
2023.57	127
2023.97	111
2024.37	81
2024.77	109
2025.17	113
2025.57	133
2025.97	125
2026.37	101
2026.77	101
2027.16	139
2027.56	93
2027.96	133
2028.36	99
2028.76	101
2029.16	139
2029.56	113
2029.96	107
2030.36	117
2030.76	87
2031.16	107
2031.56	137
2031.96	107
2032.35	145
2032.75	95
2033.15	127
2033.55	119
2033.95	135
2034.35	99
2034.75	133
2035.15	85
2035.54	129
2035.94	123
2036.34	65
2036.74	145
2037.14	77
2037.54	149
2037.94	93
2038.34	129
2038.74	75
2039.13	117
2039.53	97
2039.93	127
2040.33	137
2040.73	79
2041.12	161
2041.52	67
2041.92	135
2042.32	85
2042.72	131
2043.12	101
2043.51	131
2043.91	105
2044.31	127
2044.71	123
2045.11	83
2045.51	141
2045.9	73
2046.3	131
2046.7	89
2047.1	117
2047.49	101
2047.89	125
2048.29	83
2048.69	137
2049.09	101
2049.48	105
2049.88	139
2050.28	85
2050.68	133
2051.07	101
2051.47	137
2051.87	119
2052.27	131
2052.67	83
2053.06	135
2053.46	109
2053.86	119
2054.26	109
2054.65	87
2055.05	117
2055.45	95
2055.85	111
2056.24	135
2056.64	85
2057.04	97
2057.43	121
2057.83	113
2058.23	119
2058.62	109
2059.02	91
2059.42	111
2059.82	109
2060.21	93
2060.61	141
2061.01	85
2061.4	87
2061.8	137
2062.2	119
2062.59	127
2062.99	75
2063.39	107
2063.79	109
2064.18	133
2064.58	65
2064.97	101.4
2065.37	85
2065.77	115
2066.16	135
2066.56	117
2066.96	141
2067.35	85
2067.75	119
2068.15	105
2068.54	123
2068.94	81
2069.34	149
2069.73	73
2070.13	133
2070.52	111
2070.92	115
2071.32	119
2071.71	63
2072.11	121
2072.51	97
2072.9	143
2073.3	71
2073.69	139
2074.09	95
2074.49	143
2074.88	107
2075.28	109
2075.67	123
2076.07	67
2076.47	119
2076.86	101
2077.26	141
2077.65	87
2078.05	141
2078.44	89
2078.84	137
2079.23	99
2079.63	111
2080.03	145
2080.42	85
2080.82	123
2081.21	119
2081.61	119
2082	83
2082.4	127
2082.79	93
2083.19	129
2083.58	95
2083.98	101
2084.37	125
2084.77	95
2085.16	119
2085.56	129
2085.95	115
2086.35	101
2086.74	131
2087.14	97
2087.53	149
2087.93	97
2088.32	117
2088.72	129
2089.11	93
2089.51	119
2089.9	111
2090.3	103
2090.69	127
2091.09	105
2091.48	97
2091.88	127
2092.27	107
2092.67	125
2093.06	135
2093.46	91
2093.85	111
2094.25	139
2094.64	101
2095.03	141
2095.43	87
2095.82	119
2096.22	125
2096.61	93
2097.01	103
2097.4	121
2097.79	109
2098.19	83
2098.58	129
2098.98	89
2099.37	149
2099.76	63
2100.16	129
2100.55	121
2100.95	89
2101.34	127
2101.73	99
2102.13	105
2102.52	87
2102.92	139
2103.31	101
2103.7	157
2104.1	63
2104.49	133
2104.88	93
2105.28	113
2105.67	127
2106.07	119
2106.46	95
2106.85	113
2107.25	137
2107.64	97
2108.03	159
2108.43	57
2108.82	151
2109.21	95
2109.61	121
2110	109
2110.39	109
2110.79	97
2111.18	111
2111.57	133
2111.97	93
2112.36	159
2112.75	55
2113.15	155
2113.54	105
2113.93	123
2114.32	113
2114.72	93
2115.11	115
2115.5	111
2115.9	121
2116.29	109
2116.68	133
2117.08	65
2117.47	131
2117.86	111
2118.25	113
2118.65	111
2119.04	99
2119.43	95
2119.82	125
2120.22	99
2120.61	125
2121	127
2121.39	73
2121.79	131
2122.18	115
2122.57	115
2122.96	117
2123.36	89
2123.75	117
2124.14	135
2124.53	99
2124.93	119
2125.32	97
2125.71	97
2126.1	125
2126.49	113
2126.89	103
2127.28	105
2127.67	97
2128.06	119
2128.45	127
2128.85	103
2129.24	109
2129.63	99
2130.02	101
2130.41	125
2130.81	137
2131.2	97
2131.59	131
2131.98	93
2132.37	121
2132.76	139
2133.16	85
2133.55	135
2133.94	71
2134.33	137
2134.72	103
2135.11	125
2135.5	83
2135.9	117
2136.29	97
2136.68	105
2137.07	111
2137.46	81
2137.85	133
2138.24	93
2138.63	139
2139.03	99
2139.42	133
2139.81	93
2140.2	137
2140.59	69
2140.98	129
2141.37	99
2141.76	107
2142.15	137
2142.55	63
2142.94	123
2143.33	85
2143.72	131
2144.11	85
2144.5	121
2144.89	79
2145.28	133
2145.67	119
2146.06	91
2146.45	139
2146.84	77
2147.23	135
2147.62	107
2148.02	113
2148.4	107
2148.8	111
2149.19	89
2149.58	133
2149.97	123
2150.36	103
2150.75	131
2151.14	83
2151.53	123
2151.92	87
2152.31	111
2152.7	137
2153.09	95
2153.48	79
2153.87	115
2154.26	117
2154.65	105
2155.04	121
2155.43	91
2155.82	115
2156.21	115
2156.6	115
2156.99	147
2157.38	89
2157.77	103
2158.16	133
2158.55	117
2158.94	123
2159.33	107
2159.72	103
2160.11	111
2160.5	131
2160.89	97
2161.28	141
2161.66	79
2162.05	107
2162.44	133
2162.83	107
2163.22	117
2163.61	91
2164	99
2164.39	123
2164.78	133
2165.17	81
2165.56	157
2165.95	73
2166.34	117
2166.73	93
2167.11	117
2167.5	125
2167.89	79
2168.28	101
2168.67	93
2169.06	139
2169.45	75
2169.84	163
2170.23	53
2170.62	123
2171	101
2171.39	105
2171.78	129
2172.17	79
2172.56	123
2172.95	105
2173.34	145
2173.73	61
2174.11	167
2174.5	77
2174.89	139
2175.28	103
2175.67	99
2176.06	113
2176.45	65
2176.83	119
2177.22	121
2177.61	123
2178	65
2178.39	135
2178.78	75
2179.16	141
2179.55	89
2179.94	121
2180.33	121
2180.72	85
2181.1	129
2181.49	101
2181.88	129
2182.27	87
2182.66	145
2183.04	77
2183.43	141
2183.82	81
2184.21	97
2184.6	135
2184.98	65
2185.37	119
2185.76	123
2186.15	97
2186.53	85
2186.92	103
2187.31	99
2187.7	121
2188.08	93
2188.47	95
2188.86	129
2189.25	79
2189.63	115
2190.02	133
2190.41	103
2190.8	117
2191.18	83
2191.57	119
2191.96	125
2192.34	105
2192.73	113
2193.12	125
2193.51	105
2193.89	89
2194.28	133
2194.67	77
2195.06	131
2195.44	83
2195.83	93
2196.22	135
2196.6	83
2196.99	107
2197.38	113
2197.76	99
2198.15	113
2198.54	125
2198.92	101
2199.31	137
2199.7	79
2200.08	115
2200.47	97
2200.86	117
2201.24	109
2201.63	129
2202.02	103
2202.4	87
2202.79	117
2203.18	87
2203.56	151
2203.95	43
2204.34	133
2204.72	99
2205.11	123
2205.49	105
2205.88	101
2206.27	101
2206.65	83
2207.04	135
2207.43	83
2207.81	157
2208.2	49
2208.58	141
2208.97	99
2209.36	123
2209.74	121
2210.13	87
2210.51	107
2210.9	107
2211.29	117
2211.67	95
2212.06	129
2212.44	49
2212.83	147
2213.21	115
2213.6	107
2213.98	101
2214.37	95
2214.76	95
2215.14	119
2215.53	105
2215.91	106.861
2216.3	124.591
2216.69	68.4548
2217.07	141.943
2217.46	102.052
2217.84	105.26
2218.23	92.532
2218.61	90.4329
2219	99.9673
2219.38	119.46
2219.77	99.7039
2220.15	108.847
2220.54	101.72
2220.92	88.303
2221.31	118.291
2221.69	116.311
2222.08	93.4147
2222.46	122.224
2222.85	86.0081
2223.23	115.777
2223.62	121.578
2224	94.0612
2224.39	116.454
2224.77	84.4181
2225.16	116.855
2225.54	110.107
2225.93	131.054
2226.31	77.866
2226.7	128.228
2227.08	81.2248
2227.47	119.656
2227.85	115.91
2228.23	87.0247
2228.62	125.616
2229	95.2172
2229.39	122.501
2229.77	100.609
2230.16	130.487
2230.54	82.0574
2230.92	119.73
2231.31	102.953
2231.69	119.27
2232.08	115.391
2232.46	92.2513
2232.85	126.337
2233.23	86.9896
2233.62	114.189
2234	95.1374
2234.38	121.627
2234.77	84.4902
2235.15	120.365
2235.54	98.7006
2235.92	130.134
2236.3	119.443
2236.69	101.505
2237.07	124.962
2237.46	95.1846
2237.84	121.825
2238.22	98.9267
2238.61	123
2238.99	95.7103
2239.37	97.984
2239.76	110.479
2240.14	119.237
2240.53	112.88
2240.91	97.6928
2241.29	115.19
2241.68	99.5007
2242.06	120.448
2242.44	102.709
2242.83	120.554
2243.21	106.482
2243.59	93.5052
2243.98	110.157
2244.36	113.785
2244.74	100.754
2245.13	103.418
2245.51	101.697
2245.89	101.633
2246.28	124.428
2246.66	100.138
2247.04	117.97
2247.43	99.7111
2247.81	99.9927
2248.19	119.33
2248.58	121.17
2248.96	99.5178
2249.34	97.2469
2249.73	94.6059
2250.11	98.9083
2250.49	117.801
2250.88	98.4921
2251.26	112.706
2251.64	120.71
2252.02	106.44
2252.41	120.263
2252.79	134.586
2252.8	135
2253.18	113
2253.57	129
2253.96	73
2254.35	111
2254.74	113
2255.12	85
2255.51	115
2255.9	99
2256.29	119
2256.67	105
2257.06	119
2257.45	81
2257.84	131
2258.22	67
2258.61	115
2259	119
2259.39	79
2259.77	131
2260.16	75
2260.55	113
2260.94	99
2261.32	135
2261.71	101
2262.1	137
2262.48	97
2262.87	117
2263.26	131
2263.65	79
2264.03	133
2264.42	81
2264.81	131
2265.19	103
2265.58	131
2265.97	83
2266.35	141
2266.74	75
2267.13	123
2267.51	113
2267.9	101
2268.29	157
2268.67	65
2269.06	111
2269.45	87
2269.83	117
2270.22	93
2270.61	141
2270.99	63
2271.38	137
2271.77	99
2272.15	93
2272.54	153
2272.93	69
2273.31	147
2273.7	79
2274.08	143
2274.47	125
2274.86	117
2275.24	89
2275.63	127
2276.02	101
2276.4	81
2276.79	137
2277.17	77
2277.56	121
2277.95	77
2278.33	117
2278.72	119
2279.1	131
2279.49	75
2279.88	133
2280.26	111
2280.65	113
2281.03	127
2281.42	89
2281.8	129
2282.19	103
2282.58	115
2282.96	131
2283.35	107
2283.73	65
2284.12	145
2284.5	113
2284.89	107
2285.28	115
2285.66	85
2286.05	111
2286.43	101
2286.82	103
2287.2	123
2287.59	101
2287.97	85
2288.36	109
2288.74	111
2289.13	101
2289.51	95
2289.9	87
2290.28	111
2290.67	121
2291.05	93
2291.44	147
2291.82	53
2292.21	91
2292.59	121
2292.98	125
2293.36	113
2293.75	89
2294.13	107
2294.52	103
2294.9	131
2295.29	79
2295.67	147
2296.06	57
2296.44	123
2296.83	117
2297.21	111
2297.6	119
2297.98	81
2298.36	123
2298.75	109
2299.13	135
2299.52	63
2299.9	145
2300.29	59
2300.67	143
2301.06	121
2301.44	127
2301.82	97
2302.21	83
2302.59	127
2302.98	125
2303.36	129
2303.75	67
2304.13	159
2304.51	57
2304.9	143
2305.28	97
2305.67	131
2306.05	123
2306.44	109
2306.82	91
2307.2	117
2307.59	137
2307.97	69
2308.35	159
2308.74	71
2309.12	145
2309.51	89
2309.89	133
2310.27	109
2310.66	93
2311.04	143
2311.42	119
2311.81	117
2312.19	87
2312.57	133
2312.96	89
2313.34	123
2313.73	95
2314.11	113
2314.49	155
2314.88	107
2315.26	107
2315.64	143
2316.03	97
2316.41	93
2316.79	101
2317.18	95
2317.56	137
2317.94	103
2318.32	115
2318.71	131
2319.09	95
2319.47	95
2319.86	117
2320.24	113
2320.62	119
2321.01	97
2321.39	77
2321.77	111
2322.15	105
2322.54	101
2322.92	137
2323.3	97
2323.69	113
2324.07	131
2324.45	107
2324.83	121
2325.22	85
2325.6	127
2325.98	107
2326.36	105
2326.75	101
2327.13	163
2327.51	103
2327.89	119
2328.28	133
2328.66	105
2329.04	151
2329.42	67
2329.81	125
2330.19	115
2330.57	139
2330.95	101
2331.33	149
2331.72	87
2332.1	109
2332.48	131
2332.86	87
2333.24	161
2333.63	45
2334.01	123
2334.39	103
2334.77	121
2335.15	105
2335.54	135
2335.92	79
2336.3	117
2336.68	151
2337.06	115
2337.44	155
2337.83	37
2338.21	141
2338.59	93
2338.97	133
2339.35	91
2339.73	141
2340.12	81
2340.5	119
2340.88	119
2341.26	89
2341.64	165
2342.02	55
2342.41	145
2342.79	99
2343.17	117
2343.55	95
2343.93	125
2344.31	83
2344.69	133
2345.07	105
2345.45	97
2345.84	153
2346.22	57
2346.6	127
2346.98	117
2347.36	115
2347.74	105
2348.12	111
2348.5	99
2348.88	121
2349.26	119
2349.65	105
2350.03	121
2350.41	81
2350.79	105
2351.17	115
2351.55	109
2351.93	113
2352.31	113
2352.69	101
2353.07	145
2353.45	91
2353.83	115
2354.21	117
2354.59	95
2354.98	119
2355.35	115
2355.74	113
2356.12	109
2356.5	91
2356.88	121
2357.26	137
2357.64	111
2358.02	117
2358.4	117
2358.78	105
2359.16	117
2359.54	135
2359.92	95
2360.3	125
2360.68	77
2361.06	129
2361.44	121
2361.82	97
2362.2	117
2362.58	109
2362.96	127
2363.34	103
2363.72	129
2364.1	73
2364.48	155
2364.86	69
2365.24	123
2365.62	103
2366	87
2366.38	139
2366.75	91
2367.14	113
2367.51	99
2367.89	131
2368.27	101
2368.65	157
2369.03	63
2369.41	143
2369.79	97
2370.17	99
2370.55	151
2370.93	91
2371.31	105
2371.69	99
2372.07	125
2372.45	83
2372.83	129
2373.2	69
2373.58	159
2373.96	113
2374.34	111
2374.72	117
2375.1	103
2375.48	117
2375.86	85
2376.24	123
2376.61	81
2376.99	139
2377.37	45
2377.75	121
2378.13	111
2378.51	113
2378.89	127
2379.27	95
2379.65	119
2380.02	135
2380.4	119
2380.78	101
2381.16	131
2381.54	101
2381.92	121
2382.3	133
2382.67	129
2383.05	113
2383.43	77
2383.81	121
2384.19	127
2384.57	109
2384.94	127
2385.32	109
2385.7	93
2386.08	135
2386.46	143
2386.83	111
2387.21	123
2387.59	103
2387.97	119
2388.35	161
2388.73	83
2389.1	147
2389.48	89
2389.86	121
2390.24	119
2390.62	117
2390.99	109
2391.37	127
2391.75	89
2392.13	109
2392.5	115
2392.88	81
2393.26	149
2393.64	115
2394.01	119
2394.39	101
2394.77	137
2395.15	83
2395.52	121
2395.9	91
2396.28	121
2396.66	145
2397.04	79
2397.41	163
2397.79	69
2398.17	167
2398.54	107
2398.92	143
2399.3	97
2399.68	113
2400.05	101
2400.43	129
2400.81	133
2401.18	73
2401.56	167
2401.94	91
2402.32	145
2402.69	101
2403.07	147
2403.45	117
2403.82	133
2404.2	103
2404.58	123
2404.95	121
2405.33	81
2405.71	153
2406.09	85
2406.46	139
2406.84	79
2407.22	135
2407.59	119
2407.97	121
2408.34	83
2408.72	133
2409.1	99
2409.47	81
2409.85	159
2410.23	83
2410.6	153
2410.98	95
2411.36	131
2411.73	117
2412.11	113
2412.49	89
2412.86	135
2413.24	121
2413.61	95
2413.99	145
2414.37	93
2414.74	159
2415.12	93
2415.5	101
2415.87	135
2416.25	95
2416.62	97
2417	141
2417.37	115
2417.75	127
2418.13	127
2418.5	117
2418.88	141
2419.25	139
2419.63	117
2420.01	147
2420.38	103
2420.76	101
2421.13	139
2421.51	131
2421.88	129
2422.26	121
2422.64	105
2423.01	121
2423.39	139
2423.76	111
2424.14	151
2424.51	91
2424.89	115
2425.26	123
2425.64	103
2426.01	127
2426.39	103
2426.76	125
2427.14	123
2427.52	137
2427.89	101
2428.26	159
2428.64	89
2429.02	149
2429.39	115
2429.77	119
2430.14	139
2430.52	79
2430.89	135
2431.26	137
2431.64	141
2432.02	97
2432.39	153
2432.77	63
2433.14	125
2433.51	131
2433.89	129
2434.26	141
2434.64	67
2435.01	145
2435.39	109
2435.76	149
2436.14	87
2436.51	163
2436.89	79
2437.26	147
2437.63	151
2438.01	129
2438.38	157
2438.76	75
2439.13	133
2439.51	123
2439.88	151
2440.26	83
2440.63	155
2441	79
2441.38	147
2441.75	141
2442.13	121
2442.5	167
2442.87	101
2443.25	139
2443.62	127
2444	145
2444.37	97
2444.74	175
2445.12	131
2445.49	173
2445.87	109
2446.24	149
2446.61	149
2446.99	103
2447.36	155
2447.73	127
2448.11	135
2448.48	117
2448.86	157
2449.23	137
2449.6	175
2449.98	119
2450.35	135
2450.72	177
2451.1	127
2451.47	169
2451.84	141
2452.22	157
2452.59	145
2452.97	169
2453.34	159
2453.71	181
2454.08	119
2454.46	143
2454.83	175
2455.2	163
2455.58	151
2455.95	187
2456.32	157
2456.7	187
2457.07	133
2457.44	171
2457.82	165
2458.19	141
2458.56	155
2458.93	155
2459.31	143
2459.68	151
2460.05	191
2460.43	151
2460.8	211
2461.17	103
2461.54	179
2461.92	139
2462.29	153
2462.66	145
2463.03	163
2463.41	127
2463.78	141
2464.15	167
2464.52	131
2464.9	215
2465.27	111
2465.64	183
2466.01	149
2466.39	171
2466.76	141
2467.13	167
2467.5	159
2467.88	145
2468.25	171
2468.62	131
2468.99	201
2469.37	85
2469.74	171
2470.11	127
2470.48	161
2470.85	137
2471.22	163
2471.6	125
2471.97	131
2472.34	165
2472.71	119
2473.08	191
2473.46	91
2473.83	183
2474.2	145
2474.57	153
2474.94	137
2475.32	141
2475.69	133
2476.06	181
2476.43	145
2476.8	131
2477.17	167
2477.55	93
2477.92	157
2478.29	135
2478.66	165
2479.03	163
2479.4	135
2479.77	133
2480.15	149
2480.52	157
2480.89	135
2481.26	147
2481.63	97
2482	145
2482.37	141
2482.74	133
2483.12	143
2483.49	121
2483.86	141
2484.23	143
2484.6	115
2484.97	119
2485.34	127
2485.71	103
2486.08	145
2486.46	145
2486.83	129
2487.2	147
2487.57	99
2487.94	127
2488.31	149
2488.68	113
2489.05	147
2489.42	119
2489.79	125
2490.16	139
2490.53	169
2490.9	113
2491.27	143
2491.64	93
2492.01	139
2492.38	145
2492.76	91
2493.13	135
2493.5	95
2493.87	121
2494.24	127
2494.61	163
2494.98	97
2495.35	137
2495.72	97
2496.09	153
2496.46	117
2496.83	109
2497.2	159
2497.57	97
2497.94	145
2498.31	109
2498.68	151
2499.05	107
2499.42	155
2499.79	103
2500.16	151
2500.53	133
2500.9	105
2501.27	165
2501.64	85
2502.01	145
2502.38	103
2502.75	143
2503.12	81
2503.49	153
2503.86	101
2504.23	139
2504.6	135
2504.97	99
2505.34	159
2505.7	57
2506.07	143
2506.44	75
2506.81	159
2507.18	113
2507.55	153
2507.92	87
2508.29	145
2508.66	127
2509.03	117
2509.4	143
2509.77	85
2510.14	131
2510.5	105
2510.88	149
2511.24	117
2511.61	121
2511.98	85
2512.35	139
2512.72	125
2513.09	129
2513.46	135
2513.83	85
2514.2	133
2514.56	119
2514.93	155
2515.3	145
2515.67	127
2516.04	83
2516.41	139
2516.78	143
2517.15	127
2517.51	131
2517.88	101
2518.25	135
2518.62	129
2518.99	125
2519.36	143
2519.73	113
2520.09	125
2520.46	131
2520.83	129
2521.2	119
2521.57	109
2521.94	107
2522.3	135
2522.67	125
2523.04	109
2523.41	143
2523.78	101
2524.15	105
2524.51	129
2524.88	133
2525.25	119
2525.62	93
2525.98	99
2526.35	119
2526.72	177
2527.09	93
2527.46	143
2527.83	79
2528.19	113
2528.56	121
2528.93	149
2529.3	143
2529.66	111
2530.03	105
2530.4	147
2530.77	159
2531.13	85
2531.5	155
2531.87	69
2532.24	141
2532.61	121
2532.97	125
2533.34	109
2533.71	87
2534.07	121
2534.44	117
2534.81	151
2535.18	81
2535.54	169
2535.91	83
2536.28	149
2536.65	105
2537.01	137
2537.38	135
2537.75	109
2538.11	119
2538.48	111
2538.85	155
2539.22	61
2539.58	157
2539.95	73
2540.32	153
2540.68	111
2541.05	139
2541.42	141
2541.78	119
2542.15	109
2542.52	125
2542.89	115
2543.25	101
2543.62	125
2543.99	83
2544.35	145
2544.72	97
2545.08	129
2545.45	123
2545.82	111
2546.19	109
2546.55	123
2546.92	117
2547.28	111
2547.65	133
2548.02	95
2548.38	141
2548.75	101
2549.12	119
2549.48	145
2549.85	97
2550.21	125
2550.58	135
2550.95	125
2551.31	135
2551.68	119
2552.05	127
2552.41	131
2552.78	135
2553.14	117
2553.51	145
2553.88	85
2554.24	105
2554.61	135
2554.97	105
2555.34	129
2555.71	81
2556.07	127
2556.44	91
2556.8	111
2557.17	95
2557.53	157
2557.9	81
2558.27	109
2558.63	137
2559	91
2559.36	145
2559.73	69
2560.09	127
2560.46	111
2560.82	145
2561.19	119
2561.55	147
2561.92	101
2562.29	103
2562.65	143
2563.02	115
2563.38	159
2563.75	79
2564.11	139
2564.48	105
2564.84	149
2565.21	101
2565.57	144.749
2565.94	79.8979
2566.3	124.638
2566.67	128.137
2567.03	97.0176
2567.4	159.867
2567.76	52.6145
2568.13	132.609
2568.49	107.912
2568.86	137.141
2569.22	101.604
2569.59	126.636
2569.95	107.266
2570.32	132.431
2570.68	131.442
2571.05	104.829
2571.41	158.054
2571.78	66.2143
2572.14	140.792
2572.51	111.63
2572.87	121.243
2573.23	112.798
2573.6	128.987
2573.96	99.9922
2574.33	122.478
2574.69	113.855
2575.06	98.2358
2575.42	136.33
2575.79	79.5158
2576.15	132.226
2576.51	124.865
2576.88	133.693
2577.24	100.93
2577.61	130.174
2577.97	107.853
2578.34	132.506
2578.7	112.668
2579.06	106.934
2579.43	126.407
2579.79	86.6755
2580.16	141.153
2580.52	110.643
2580.88	119.643
2581.25	107.006
2581.61	120.106
2581.98	111.343
2582.34	134.957
2582.7	116.972
2583.07	109.238
2583.43	132.526
2583.8	101.88
2584.16	132.953
2584.52	122.891
2584.89	115.217
2585.25	140.078
2585.61	127.975
2585.98	121.278
2586.34	120.24
2586.7	126.698
2587.07	101.128
2587.43	128.653
2587.8	108.078
2588.16	124.487
2588.52	132.066
2588.88	93.7769
2589.25	121.653
2589.61	115.952
2589.97	139.903
2590.34	104.538
2590.7	136.862
2591.06	96.3816
2591.43	136.637
2591.79	123.796
2592.15	133.5
2592.52	136.635
2592.88	94.8621
2593.24	138.382
2593.61	120.769
2593.97	132.201
2594.33	91.3601
2594.7	131.714
2595.06	107.976
2595.42	167.99
2595.78	126.702
2596.15	121.052
2596.51	147.891
2596.87	96.3137
2597.24	138.968
2597.6	121.861
2597.96	132.446
2598.32	92.2948
2598.69	157.485
2599.05	108.078
2599.41	144.464
2599.78	110.67
2600.14	103.856
2600.5	130.472
2600.86	119.952
2600.95	115
2601.31	131
2601.68	149
2602.05	131
2602.42	117
2602.78	139
2603.15	103
2603.52	139
2603.89	113
2604.25	121
2604.62	145
2604.99	113
2605.35	129
2605.72	133
2606.09	119
2606.46	129
2606.82	133
2607.19	121
2607.56	145
2607.92	125
2608.29	127
2608.66	151
2609.03	105
2609.39	119
2609.76	143
2610.13	135
2610.49	145
2610.86	107
2611.23	145
2611.59	137
2611.96	133
2612.33	121
2612.69	159
2613.06	99
2613.43	123
2613.79	177
2614.16	153
2614.53	189
2614.89	95
2615.26	165
2615.62	135
2615.99	149
2616.36	123
2616.72	159
2617.09	131
2617.46	117
2617.82	165
2618.19	129
2618.56	175
2618.92	121
2619.29	169
2619.65	129
2620.02	157
2620.39	129
2620.75	175
2621.12	109
2621.48	131
2621.85	171
2622.22	129
2622.58	187
2622.95	87
2623.31	189
2623.68	129
2624.04	167
2624.41	135
2624.78	161
2625.14	121
2625.51	155
2625.87	171
2626.24	143
2626.6	201
2626.97	115
2627.34	181
2627.7	159
2628.07	195
2628.43	155
2628.8	161
2629.16	153
2629.53	177
2629.9	189
2630.26	141
2630.63	197
2630.99	103
2631.36	183
2631.72	167
2632.09	181
2632.45	177
2632.82	161
2633.18	163
2633.55	177
2633.91	199
2634.28	171
2634.64	221
2635.01	121
2635.37	173
2635.74	175
2636.1	221
2636.47	159
2636.83	165
2637.2	169
2637.56	207
2637.93	203
2638.29	189
2638.66	211
2639.02	143
2639.39	213
2639.75	173
2640.12	181
2640.48	193
2640.84	165
2641.21	217
2641.57	225
2641.94	213
2642.3	191
2642.67	211
2643.03	187
2643.4	213
2643.76	235
2644.13	209
2644.49	211
2644.85	219
2645.22	209
2645.58	255
2645.95	249
2646.31	271
2646.68	275
2647.04	207
2647.4	263
2647.77	291
2648.13	239
2648.5	265
2648.86	231
2649.22	259
2649.59	305
2649.95	255
2650.32	259
2650.68	249
2651.04	299
2651.41	315
2651.77	311
2652.14	285
2652.5	319
2652.86	267
2653.23	295
2653.59	279
2653.95	315
2654.32	327
2654.68	287
2655.05	347
2655.41	333
2655.77	369
2656.14	335
2656.5	403
2656.86	295
2657.23	397
2657.59	349
2657.95	347
2658.32	367
2658.68	367
2659.04	425
2659.41	357
2659.77	419
2660.13	363
2660.5	483
2660.86	397
2661.22	455
2661.59	413
2661.95	451
2662.31	497
2662.68	453
2663.04	439
2663.4	441
2663.76	507
2664.13	497
2664.49	551
2664.85	461
2665.22	579
2665.58	553
2665.94	563
2666.3	605
2666.67	565
2667.03	557
2667.39	573
2667.76	597
2668.12	617
2668.48	661
2668.84	545
2669.21	651
2669.57	625
2669.93	703
2670.29	691
2670.66	659
2671.02	657
2671.38	727
2671.74	727
2672.11	719
2672.47	799
2672.83	713
2673.19	833
2673.56	805
2673.92	839
2674.28	809
2674.64	825
2675	853
2675.37	881
2675.73	891
2676.09	901
2676.45	913
2676.81	855
2677.18	959
2677.54	989
2677.9	997
2678.26	1003
2678.62	949
2678.99	953
2679.35	1011
2679.71	967
2680.07	1039
2680.43	1013
2680.8	1065
2681.16	1073
2681.52	1069
2681.88	1079
2682.24	1081
2682.6	1075
2682.97	1091
2683.33	1105
2683.69	1021
2684.05	1161
2684.41	1061
2684.77	1147
2685.13	1119
2685.5	1107
2685.86	1041
2686.22	1067
2686.58	1053
2686.94	1095
2687.3	1101
2687.66	1043
2688.03	1115
2688.39	1053
2688.75	1061
2689.11	1021
2689.47	1091
2689.83	1027
2690.19	1025
2690.55	1027
2690.91	1021
2691.28	1005
2691.64	901
2692	987
2692.36	911
2692.72	981
2693.08	929
2693.44	939
2693.8	881
2694.16	915
2694.52	835
2694.88	879
2695.24	813
2695.61	821
2695.97	843
2696.33	745
2696.69	865
2697.05	761
2697.41	825
2697.77	717
2698.13	747
2698.49	677
2698.85	711
2699.21	717
2699.57	631
2699.93	663
2700.29	577
2700.65	651
2701.01	575
2701.37	633
2701.73	617
2702.09	621
2702.45	487
2702.81	629
2703.18	567
2703.53	525
2703.89	579
2704.25	499
2704.62	537
2704.98	451
2705.33	503
2705.69	491
2706.06	469
2706.42	425
2706.78	457
2707.13	455
2707.49	397
2707.85	447
2708.22	397
2708.57	423
2708.93	365
2709.29	413
2709.65	439
2710.01	371
2710.37	377
2710.73	379
2711.09	389
2711.45	345
2711.81	347
2712.17	291
2712.53	347
2712.89	293
2713.25	341
2713.61	313
2713.97	283
2714.33	285
2714.69	353
2715.05	301
2715.41	285
2715.76	301
2716.12	253
2716.48	289
2716.84	273
2717.2	279
2717.56	283
2717.92	255
2718.28	239
2718.64	303
2719	265
2719.35	253
2719.71	231
2720.07	253
2720.43	257
2720.79	289
2721.15	231
2721.51	281
2721.87	197
2722.23	221
2722.59	219
2722.94	231
2723.3	233
2723.66	219
2724.02	207
2724.38	199
2724.74	243
2725.1	175
2725.46	247
2725.81	165
2726.17	205
2726.53	209
2726.89	213
2727.25	211
2727.61	155
2727.96	195
2728.32	199
2728.68	239
2729.04	157
2729.4	259
2729.75	143
2730.11	193
2730.47	187
2730.83	181
2731.19	167
2731.55	139
2731.91	181
2732.26	167
2732.62	181
2732.98	137
2733.34	241
2733.69	145
2734.05	205
2734.41	151
2734.77	185
2735.13	167
2735.48	149
2735.84	149
2736.2	169
2736.56	183
2736.91	111
2737.27	215
2737.63	117
2737.99	195
2738.35	147
2738.7	175
2739.06	189
2739.42	117
2739.78	155
2740.13	175
2740.49	187
2740.85	123
2741.21	173
2741.56	97
2741.92	197
2742.28	151
2742.64	165
2742.99	177.44
2743.35	187.5
2743.71	186.7
2744.06	173
2744.42	147
2744.78	143
2745.14	169
2745.49	127
2745.85	165
2746.21	131
2746.57	149
2746.92	187
2747.28	123
2747.64	129
2747.99	169
2748.35	141
2748.71	153
2749.06	173
2749.42	147
2749.78	167
2750.13	127
2750.49	145
2750.85	157
2751.2	149
2751.56	141
2751.92	181
2752.27	131
2752.63	167
2752.99	145
2753.34	133
2753.7	149
2754.06	147
2754.41	145
2754.77	173
2755.13	107
2755.48	121
2755.84	143
2756.2	127
2756.55	159
2756.91	101
2757.26	149
2757.62	151
2757.98	147
2758.33	141
2758.69	177
2759.04	103
2759.4	155
2759.76	153
2760.11	121
2760.47	183
2760.83	103
2761.18	167
2761.54	111
2761.89	169
2762.25	131
2762.61	165
2762.96	97
2763.32	129
2763.67	153
2764.03	107
2764.38	163
2764.74	77
2765.1	153
2765.45	143
2765.81	161
2766.16	101
2766.52	153
2766.88	101
2767.23	133
2767.59	141
2767.94	125
2768.3	177
2768.65	71
2769.01	173
2769.36	131
2769.72	171
2770.07	95
2770.43	143
2770.78	85
2771.14	135
2771.49	135
2771.85	125
2772.21	177
2772.56	59
2772.92	177
2773.27	97
2773.63	143
2773.98	109
2774.34	121
2774.69	109
2775.05	157
2775.4	139
2775.76	115
2776.11	173
2776.47	69
2776.82	157
2777.18	107
2777.53	167
2777.89	127
2778.24	119
2778.59	103
2778.95	157
2779.3	127
2779.66	113
2780.01	151
2780.37	79
2780.72	169
2781.08	131
2781.43	135
2781.79	99
2782.14	135
2782.49	125
2782.85	165
2783.2	107
2783.56	115
2783.91	133
2784.27	93
2784.62	131
2784.98	125
2785.33	113
2785.68	137
2786.04	119
2786.39	121
2786.75	147
2787.1	121
2787.46	115
2787.81	137
2788.16	111
2788.52	149
2788.87	141
2789.22	113
2789.58	151
2789.93	115
2790.29	137
2790.64	141
2790.99	103
2791.35	133
2791.7	121
2792.06	119
2792.41	129
2792.76	149
2793.12	97
2793.47	153
2793.82	101
2794.18	131
2794.53	149
2794.88	85
2795.24	131
2795.59	97
2795.95	117
2796.3	113
2796.65	141
2797.01	79
2797.36	163
2797.71	99
2798.07	149
2798.42	115
2798.77	167
2799.13	176.68
2799.48	138.936
2799.83	121
2800.19	115
2800.54	145
2800.89	111
2801.24	171
2801.6	77
2801.95	161
2802.3	123
2802.66	125
2803.01	115
2803.36	103
2803.72	133
2804.07	99
2804.42	131
2804.77	77
2805.13	167
2805.48	63
2805.83	145
2806.19	111
2806.54	117
2806.89	141
2807.24	85
2807.6	145
2807.95	93
2808.3	147
2808.65	105
2809.01	155
2809.36	63
2809.71	145
2810.06	113
2810.42	115
2810.77	143
2811.12	101
2811.47	129
2811.83	119
2812.18	143
2812.53	121
2812.88	139
2813.24	77
2813.59	153
2813.94	107
2814.29	119
2814.64	127
2815	91
2815.35	105
2815.7	119
2816.05	145
2816.4	93
2816.76	133
2817.11	59
2817.46	143
2817.81	119
2818.16	115
2818.52	133
2818.87	119
2819.22	107
2819.57	115
2819.92	129
2820.28	145
2820.63	129
2820.98	77
2821.33	141
2821.68	137
2822.03	127
2822.39	115
2822.74	73
2823.09	125
2823.44	127
2823.79	101
2824.14	135
2824.49	83
2824.85	123
2825.2	131
2825.55	127
2825.9	115
2826.25	121
2826.6	91
2826.95	111
2827.31	135
2827.66	71
2828.01	151
2828.36	79
2828.71	123
2829.06	115
2829.41	141
2829.76	87
2830.11	123
2830.46	105
2830.82	127
2831.17	135
2831.52	95
2831.87	153
2832.22	89
2832.57	133
2832.92	117
2833.27	137
2833.62	99
2833.97	111
2834.32	107
2834.68	125
2835.03	123
2835.38	77
2835.73	155
2836.08	87
2836.43	153
2836.78	95
2837.13	133
2837.48	81
2837.83	123
2838.18	111
2838.53	117
2838.88	139
2839.23	81
2839.58	173
2839.93	81
2840.28	151
2840.63	95
2840.98	137
2841.33	95
2841.68	123
2842.03	97
2842.38	133
2842.73	127
2843.08	91
2843.43	167
2843.78	79
2844.13	125
2844.48	91
2844.83	135
2845.18	111
2845.53	129
2845.88	83
2846.23	143
2846.58	123
2846.93	75
2847.28	169
2847.63	65
2847.98	157
2848.33	89
2848.68	159
2849.03	117
2849.38	131
2849.73	95
2850.08	133
2850.43	139
2850.78	103
2851.13	143
2851.48	83
2851.83	151
2852.18	95
2852.53	123
2852.88	139
2853.23	115
2853.57	140
2853.92	158.023
2854.27	164.976
2854.62	161
2854.97	121
2855.32	93
2855.67	121
2856.02	115
2856.37	127
2856.72	131
2857.07	101
2857.42	103
2857.76	129
2858.11	101
2858.46	133
2858.81	103
2859.16	105
2859.51	135
2859.86	115
2860.21	133
2860.56	123
2860.91	95
2861.25	103
2861.6	129
2861.95	121
2862.3	135
2862.65	111
2863	119
2863.35	111
2863.69	115
2864.04	91
2864.39	159
2864.74	85
2865.09	105
2865.44	115
2865.78	111
2866.13	119
2866.48	89
2866.83	125
2867.18	115
2867.53	149
2867.88	95
2868.22	157
2868.57	87
2868.92	133
2869.27	131
2869.62	113
2869.96	145
2870.31	67
2870.66	121
2871.01	111
2871.36	159
2871.7	77
2872.05	149
2872.4	65
2872.75	133
2873.1	111
2873.44	119
2873.79	135
2874.14	63
2874.49	119
2874.84	99
2875.18	135
2875.53	75
2875.88	143
2876.23	83
2876.57	143
2876.92	101
2877.27	121
2877.62	131
2877.97	83
2878.31	137
2878.66	123
2879.01	139
2879.36	83
2879.7	143
2880.05	79
2880.4	157
2880.74	99
2881.09	119
2881.44	131
2881.79	89
2882.13	119
2882.48	115
2882.83	129
2883.18	65
2883.52	129
2883.87	67
2884.22	151
2884.56	109
2884.91	119
2885.26	139
2885.61	83
2885.95	103
2886.3	113
2886.65	109
2886.99	105
2887.34	113
2887.69	103
2888.03	123
2888.38	103
2888.73	107
2889.07	139
2889.42	99
2889.77	103
2890.11	141
2890.46	101
2890.81	139
2891.15	107
2891.5	111
2891.85	129
2892.19	97
2892.54	105
2892.89	131
2893.23	85
2893.58	103
2893.93	129
2894.27	101
2894.62	155
2894.96	85
2895.31	117
2895.66	101
2896	127
2896.35	102.82
2896.7	142.556
2897.04	103.153
2897.39	110.186
2897.73	131.874
2898.08	112.197
2898.43	144.726
2898.77	72.3925
2899.12	156.936
2899.46	103.725
2899.81	126.812
2900.16	110.077
2900.5	139.289
2900.85	89.3218
2901.19	105.367
2901.54	136.088
2901.88	88.3989
2902.23	157.614
2902.58	64.4325
2902.92	125.515
2903.27	102.755
2903.61	127.196
2903.96	99.0185
2904.31	132.165
2904.65	110.426
2905	105.094
2905.34	121.173
2905.69	85.9476
2906.03	144.843
2906.38	69.1561
2906.72	125.813
2907.07	108.564
2907.42	128.348
2907.76	116.88
2908.11	127.875
2908.45	128.556
2908.8	103.627
2909.14	138.302
2909.49	117.15
2909.83	138.586
2910.18	80.2135
2910.52	119.231
2910.87	110.826
2911.21	137.55
2911.56	109.143
2911.9	117.697
2912.25	111.65
2912.59	114.098
2912.94	126.068
2913.28	111.621
2913.63	126.982
2913.97	82.4455
2914.32	122.54
2914.66	109.214
2915.01	135.938
2915.35	117.909
2915.7	120.059
2916.04	108.84
2916.39	113.66
2916.73	114.748
2917.08	120.858
2917.42	124.312
2917.77	96.9449
2918.11	117.082
2918.46	105.775
2918.8	116.026
2919.15	117.778
2919.49	115.807
2919.83	115.76
2920.18	122.126
2920.52	113.386
2920.87	124.099
2921.21	114.427
2921.56	101.225
2921.9	109.394
2922.24	101.955
2922.59	119.936
2922.93	121.113
2923.28	114.731
2923.62	120.529
2923.97	113.34
2924.31	100.848
2924.65	115.859
2925	124.916
2925.34	115.977
2925.69	126.992
2926.03	91.8557
2926.38	122.063
2926.72	114.953
2927.06	100.043
2927.41	126.93
2927.75	104.895
2928.09	132.074
2928.44	116.403
2928.78	137.505
2929.13	100.35
2929.47	143.167
2929.81	69.5559
2930.16	129.796
2930.5	123.658
2930.79	105
2931.14	137
2931.49	91
2931.84	123
2932.19	87
2932.54	139
2932.88	107
2933.23	167
2933.58	71
2933.93	137
2934.28	123
2934.63	115
2934.97	145
2935.32	83
2935.67	115
2936.02	85
2936.37	131
2936.71	87
2937.06	129
2937.41	55
2937.76	145
2938.11	107
2938.46	111
2938.8	133
2939.15	89
2939.5	119
2939.85	107
2940.19	127
2940.54	115
2940.89	131
2941.24	77
2941.59	145
2941.93	117
2942.28	107
2942.63	125
2942.98	81
2943.32	117
2943.67	123
2944.02	121
2944.37	145
2944.72	111
2945.06	97
2945.41	147
2945.76	125
2946.11	93
2946.45	101
2946.8	95
2947.15	113
2947.49	123
2947.84	97
2948.19	141
2948.54	77
2948.88	99
2949.23	123
2949.58	121
2949.93	109
2950.27	113
2950.62	95
2950.97	125
2951.31	133
2951.66	87
2952.01	155
2952.35	97
2952.7	129
2953.05	119
2953.4	103
2953.74	109
2954.09	109
2954.44	91
2954.78	117
2955.13	131
2955.48	87
2955.82	161
2956.17	81
2956.52	143
2956.86	105
2957.21	139
2957.56	121
2957.9	107
2958.25	91
2958.6	125
2958.94	159
2959.29	89
2959.64	159
2959.98	77
2960.33	157
2960.68	109
2961.02	109
2961.37	101
2961.72	99
2962.06	125
2962.41	125
2962.76	143
2963.1	69
2963.45	167
2963.79	73
2964.14	133
2964.49	101
2964.83	123
2965.18	129
2965.52	109
2965.87	91
2966.22	109
2966.56	121
2966.91	83
2967.25	153
2967.6	65
2967.95	125
2968.29	87
2968.64	131
2968.98	105
2969.33	129
2969.68	93
2970.02	133
2970.37	101
2970.71	79
2971.06	153
2971.4	71
2971.75	151
2972.1	73
2972.44	109
2972.79	109
2973.13	101
2973.48	89
2973.82	121
2974.17	123
2974.51	95
2974.86	137
2975.21	89
2975.55	127
2975.9	97
2976.24	127
2976.59	135
2976.93	97
2977.28	95
2977.62	117
2977.97	119
2978.31	105
2978.66	115
2979	101
2979.35	117
2979.69	113
2980.04	115
2980.38	161
2980.73	103
2981.07	101
2981.42	143
2981.76	113
2982.11	127
2982.45	91
2982.8	103
2983.14	105
2983.49	129
2983.83	101
2984.18	139
2984.52	91
2984.87	79
2985.21	153
2985.56	115
2985.9	113
2986.25	91
2986.59	105
2986.94	117
2987.28	129
2987.62	79
2987.97	161
2988.31	95
2988.66	129
2989	119
2989.35	109
2989.69	113
2990.03	71
2990.38	115
2990.72	117
2991.07	149
2991.41	77
2991.76	157
2992.1	53
2992.44	125
2992.79	109
2993.13	119
2993.48	123
2993.82	67
2994.17	111
2994.51	111
2994.85	141
2995.2	69
2995.54	143
2995.89	81
2996.23	149
2996.57	99
2996.92	135
2997.26	125
2997.6	83
2997.95	141
2998.29	117
2998.64	127
2998.98	85
2999.32	147
2999.67	69
