#Acq. time (s)=	30
#Accumulations=	1
#Range (cm-¹)=	1050...3000 (30 s) 
#Windows=	6
#Auto scanning=	Off
#Autofocus=	Off
#AutoExposure=	Off
#Spike filter=	Off
#Delay time (s)=	0
#Binning=	1
#Readout mode=	Signal
#DeNoise=	Off
#ICS correction=	Off
#Dark correction=	Off
#Inst. Process=	Off
#Detector Gain=	High Sensitivity
#Detector ADC=	45 kHz       
#Detector temperature (°C)=	-60.1
#Instrument=	LabRAM
#Detector=	Syncerity
#Objective=	x50LWD
#Grating=	1800
#Filter=	25%
#Laser (nm)=	532
#Hole=	100
#E-Cal_Neon=	0
#StageXY=	Marzhauser
#StageZ=	Marzhauser
#X (µm)=	0
#Y (µm)=	0
#Z (µm)=	-1678.85
#Spectral res.(cm-¹)=	1.9
#Full time(mm:ss)=	3:09
#AC=	Not calibrated
#Project=	
#Sample=	
#Site=	
#Title=	Spot 2 450K REVERSE
#Remark=	
#Date=	19.02.2026 15:48
#Acquired=	19.02.2026 15:48:40
#Edit:Spike=	19.02.2026 15:49:14
#Edit:Spike=	19.02.2026 15:50:55
#Edit:Spike=	19.02.2026 15:50:58
#AxisType[0]=Intens
#AxisUnit[0]=Cnt
#AxisType[1]=Spectr
#AxisUnit[1]=1/cm
1050.13	107
1050.59	97
1051.05	139
1051.51	113
1051.97	113
1052.44	103
1052.9	107
1053.36	109
1053.82	105
1054.28	127
1054.74	137
1055.2	117
1055.67	97
1056.13	137
1056.59	117
1057.05	149
1057.51	71
1057.97	127
1058.43	129
1058.89	103
1059.36	109
1059.82	137
1060.28	119
1060.74	107
1061.2	123
1061.66	93
1062.12	175
1062.58	87
1063.04	163
1063.5	113
1063.96	111
1064.43	131
1064.89	117
1065.35	111
1065.81	101
1066.27	143
1066.73	89
1067.19	157
1067.65	67
1068.11	161
1068.57	99
1069.03	127
1069.49	151
1069.95	89
1070.41	125
1070.87	93
1071.33	133
1071.79	115
1072.25	115
1072.71	81
1073.17	141
1073.63	125
1074.09	107
1074.55	143
1075.01	87
1075.47	131
1075.93	115
1076.39	119
1076.85	131
1077.31	97
1077.77	123
1078.23	137
1078.69	115
1079.15	125
1079.61	95
1080.07	137
1080.53	107
1080.99	117
1081.45	89
1081.91	149
1082.37	91
1082.83	109
1083.29	143
1083.75	91
1084.21	167
1084.66	63
1085.12	143
1085.58	107
1086.04	127
1086.5	123
1086.96	143
1087.42	99
1087.88	115
1088.34	163
1088.8	105
1089.25	165
1089.71	47
1090.17	159
1090.63	115
1091.09	137
1091.55	119
1092.01	109
1092.47	101
1092.92	105
1093.38	117
1093.84	107
1094.3	133
1094.76	63
1095.22	177
1095.68	129
1096.13	121
1096.59	139
1097.05	97
1097.51	127
1097.97	129
1098.43	107
1098.88	127
1099.34	119
1099.8	79
1100.26	133
1100.72	119
1101.17	119
1101.63	117
1102.09	109
1102.55	131
1103.01	123
1103.46	95
1103.92	157
1104.38	67
1104.84	127
1105.29	127
1105.75	107
1106.21	117
1106.67	95
1107.12	117
1107.58	101
1108.04	167
1108.5	81
1108.95	155
1109.41	65
1109.87	131
1110.33	137
1110.78	129
1111.24	157
1111.7	61
1112.16	155
1112.61	105
1113.07	135
1113.53	89
1113.98	125
1114.44	101
1114.9	145
1115.35	143
1115.81	129
1116.27	153
1116.72	67
1117.18	131
1117.64	119
1118.1	123
1118.55	113
1119.01	121
1119.47	107
1119.92	135
1120.38	101
1120.84	117
1121.29	129
1121.75	97
1122.2	127
1122.66	119
1123.12	121
1123.57	133
1124.03	115
1124.49	127
1124.94	151
1125.4	119
1125.86	155
1126.31	95
1126.77	129
1127.22	121
1127.68	133
1128.14	113
1128.59	113
1129.05	117
1129.5	137
1129.96	153
1130.41	81
1130.87	173
1131.33	109
1131.78	137
1132.24	113
1132.69	121
1133.15	111
1133.61	101
1134.06	123
1134.52	119
1134.97	149
1135.43	71
1135.88	165
1136.34	67
1136.79	151
1137.25	97
1137.7	135
1138.16	155
1138.61	69
1139.07	141
1139.52	115
1139.98	155
1140.43	89
1140.89	135
1141.34	91
1141.8	139
1142.25	109
1142.71	105
1143.16	151
1143.62	77
1144.07	145
1144.53	105
1144.98	127
1145.44	109
1145.89	113
1146.35	125
1146.8	137
1147.26	125
1147.71	127
1148.16	117
1148.62	121
1149.07	133
1149.53	153
1149.98	109
1150.44	139
1150.89	103
1151.35	127
1151.8	129
1152.25	101
1152.71	155
1153.16	83
1153.62	143
1154.07	135
1154.52	139
1154.98	119
1155.43	127
1155.89	119
1156.34	123
1156.79	133
1157.25	83
1157.7	163
1158.16	67
1158.61	141
1159.06	95
1159.52	119
1159.97	143
1160.42	75
1160.88	133
1161.33	119
1161.78	141
1162.24	73
1162.69	145
1163.14	85
1163.6	169
1164.05	105
1164.5	117
1164.96	133
1165.41	103
1165.86	139
1166.32	123
1166.77	129
1167.22	111
1167.68	119
1168.13	111
1168.58	145
1169.04	109
1169.49	133
1169.94	119
1170.39	109
1170.85	115
1171.3	141
1171.75	107
1172.2	121
1172.66	99
1173.11	125
1173.56	121
1174.01	95
1174.47	127
1174.92	101
1175.37	131
1175.82	111
1176.28	129
1176.73	93
1177.18	145
1177.63	71
1178.09	133
1178.54	159
1178.99	79
1179.44	159
1179.89	89
1180.35	153
1180.8	99
1181.25	141
1181.7	87
1182.15	155
1182.61	97
1183.06	125
1183.51	133
1183.96	77
1184.41	171
1184.87	57
1185.32	141
1185.77	89
1186.22	119
1186.67	123
1187.12	115
1187.58	115
1188.03	139
1188.48	133
1188.93	97
1189.38	135
1189.83	101
1190.28	165
1190.73	121
1191.19	119
1191.64	143
1192.09	97
1192.54	127
1192.99	123
1193.44	115
1193.89	145
1194.34	111
1194.8	111
1195.25	135
1195.7	85
1196.15	109
1196.6	115
1197.05	101
1197.5	123
1197.95	159
1198.4	89
1198.85	167
1199.3	89
1199.75	131
1200.2	145
1200.66	103
1201.11	147
1201.56	107
1202.01	137
1202.46	97
1202.91	159
1203.36	89
1203.81	167
1204.26	87
1204.71	125
1205.16	103
1205.61	111
1206.06	165
1206.51	85
1206.96	149
1207.41	107
1207.86	135
1208.31	113
1208.76	127
1209.21	99
1209.66	143
1210.11	121
1210.56	103
1211.01	155
1211.46	71
1211.91	143
1212.36	89
1212.81	129
1213.26	115
1213.71	115
1214.16	103
1214.61	131
1215.05	105
1215.51	113
1215.95	139
1216.4	97
1216.85	159
1217.3	117
1217.75	117
1218.2	133
1218.65	101
1219.1	105
1219.55	133
1220	87
1220.45	149
1220.9	87
1221.34	117
1221.79	127
1222.24	117
1222.69	113
1223.14	129
1223.59	97
1224.04	107
1224.49	149
1224.94	113
1225.38	163
1225.83	73
1226.28	155
1226.73	113
1227.18	101
1227.63	141
1228.07	97
1228.52	139
1228.97	107
1229.42	145
1229.87	101
1230.32	167
1230.76	75
1231.21	157
1231.66	115
1232.11	97
1232.56	161
1233.01	79
1233.45	133
1233.9	89
1234.35	129
1234.8	121
1235.25	121
1235.69	93
1236.14	133
1236.59	133
1237.04	103
1237.49	135
1237.93	91
1238.38	155
1238.83	115
1239.28	127
1239.72	127
1240.17	105
1240.62	101
1241.07	121
1241.51	111
1241.96	135
1242.41	107
1242.86	119
1243.3	149
1243.75	109
1244.2	113
1244.65	137
1245.09	89
1245.54	111
1245.99	137
1246.44	103
1246.88	137
1247.33	97
1247.78	115
1248.22	119
1248.67	111
1249.12	115
1249.56	127
1250.01	119
1250.46	105
1250.9	143
1251.35	93
1251.8	149
1252.24	75
1252.69	141
1253.14	107
1253.58	111
1254.03	147
1254.48	103
1254.92	123
1255.37	99
1255.82	147
1256.26	93
1256.71	167
1257.15	61
1257.6	151
1258.05	119
1258.49	101
1258.94	147
1259.39	81
1259.83	149
1260.28	83
1260.72	141
1261.17	115
1261.62	115
1262.06	95
1262.51	145
1262.95	139
1263.4	99
1263.85	161
1264.29	99
1264.74	127
1265.18	105
1265.63	121
1266.07	151
1266.52	91
1266.97	99
1267.41	143
1267.86	117
1268.3	131
1268.75	95
1269.19	111
1269.64	113
1270.08	125
1270.53	119
1270.97	167
1271.42	89
1271.86	111
1272.31	141
1272.76	107
1273.2	149
1273.64	65
1274.09	123
1274.53	115
1274.98	133
1275.42	129
1275.87	127
1276.31	119
1276.76	97
1277.2	141
1277.65	101
1278.09	173
1278.54	81
1278.98	169
1279.43	135
1279.87	137
1280.32	127
1280.76	123
1281.21	125
1281.65	143
1282.09	135
1282.54	103
1282.98	175
1283.43	73
1283.87	159
1284.32	129
1284.76	131
1285.21	141
1285.65	99
1286.09	131
1286.54	127
1286.98	143
1287.42	139
1287.87	115
1288.31	95
1288.76	149
1289.2	131
1289.64	119
1290.09	125
1290.53	105
1290.98	125
1291.42	129
1291.86	111
1292.31	145
1292.75	91
1293.19	131
1293.64	135
1294.08	133
1294.53	127
1294.97	85
1295.41	123
1295.85	107
1296.3	145
1296.74	73
1297.19	157
1297.63	79
1298.07	121
1298.51	125
1298.96	103
1299.4	159
1299.84	69
1300.29	147
1300.73	121
1301.17	139
1301.62	103
1302.06	133
1302.5	105
1302.94	119
1303.39	145
1303.83	99
1304.27	161
1304.72	57
1305.16	129
1305.6	119
1306.04	127
1306.49	113
1306.93	105
1307.37	109
1307.81	133
1308.26	123
1308.7	119
1309.14	129
1309.58	87
1310.03	141
1310.47	113
1310.91	123
1311.35	131
1311.8	121
1312.24	143
1312.68	137
1313.12	123
1313.56	135
1314	107
1314.45	111
1314.89	117
1315.33	135
1315.77	147
1316.22	115
1316.66	109
1317.1	127
1317.54	175
1317.98	105
1318.43	165
1318.87	71
1319.31	121
1319.75	143
1320.19	115
1320.63	139
1321.07	93
1321.51	121
1321.96	117
1322.4	151
1322.84	107
1323.28	153
1323.72	61
1324.16	151
1324.6	129
1325.05	129
1325.49	155
1325.93	69
1326.37	151
1326.81	113
1327.25	161
1327.69	101
1328.13	131
1328.57	101
1329.02	145
1329.45	139
1329.9	103
1330.34	155
1330.78	61
1331.22	173
1331.66	103
1332.1	145
1332.54	127
1332.98	113
1333.42	115
1333.86	115
1334.3	119
1334.74	129
1335.18	135
1335.62	99
1336.07	155
1336.5	141
1336.95	119
1337.39	151
1337.83	93
1338.27	131
1338.71	145
1339.15	103
1339.59	169
1340.03	87
1340.47	145
1340.91	137
1341.35	131
1341.79	135
1342.23	101
1342.67	117
1343.11	129
1343.55	137
1343.99	87
1344.43	175
1344.86	81
1345.31	145
1345.74	141
1346.18	123
1346.62	141
1347.06	61
1347.5	145
1347.94	129
1348.38	153
1348.82	97
1349.26	155
1349.7	89
1350.14	159
1350.58	127
1351.02	117
1351.46	143
1351.9	87
1352.33	155
1352.77	119
1353.21	149
1353.65	97
1354.09	133
1354.53	97
1354.97	141
1355.41	113
1355.85	109
1356.29	119
1356.72	83
1357.16	153
1357.6	115
1358.04	121
1358.48	107
1358.92	125
1359.36	121
1359.79	143
1360.23	113
1360.67	121
1361.11	131
1361.55	115
1361.99	125
1362.43	119
1362.87	111
1363.3	137
1363.74	101
1364.18	131
1364.62	137
1365.06	91
1365.49	165
1365.93	101
1366.37	149
1366.81	105
1367.25	161
1367.68	101
1368.12	109
1368.56	101
1369	119
1369.44	135
1369.87	67
1370.31	173
1370.75	73
1371.19	147
1371.62	83
1372.06	125
1372.5	105
1372.94	99
1373.37	125
1373.81	129
1374.25	135
1374.69	73
1375.12	129
1375.56	87
1376	155
1376.44	111
1376.87	115
1377.31	149
1377.75	109
1378.19	137
1378.62	143
1379.06	103
1379.5	117
1379.93	109
1380.37	115
1380.81	133
1381.25	103
1381.68	131
1382.12	137
1382.56	93
1382.99	119
1383.43	151
1383.87	87
1384.3	169
1384.74	95
1385.18	135
1385.61	139
1386.05	109
1386.49	131
1386.92	95
1387.36	123
1387.8	97
1388.23	153
1388.67	99
1389.1	171
1389.54	81
1389.98	151
1390.41	111
1390.85	103
1391.29	151
1391.72	99
1392.16	135
1392.59	103
1393.03	123
1393.47	101
1393.9	161
1394.34	85
1394.77	141
1395.21	117
1395.65	119
1396.08	163
1396.52	83
1396.95	141
1397.39	93
1397.82	145
1398.26	117
1398.7	109
1399.13	105
1399.57	121
1400	125
1400.44	137
1400.87	135
1401.31	105
1401.74	139
1402.18	127
1402.62	129
1403.05	143
1403.49	81
1403.92	107
1404.36	141
1404.79	121
1405.23	155
1405.66	97
1406.1	147
1406.53	133
1406.97	109
1407.4	113
1407.84	143
1408.27	107
1408.71	99
1409.14	123
1409.58	89
1410.01	159
1410.45	55
1410.88	141
1411.31	107
1411.75	119
1412.18	151
1412.62	103
1413.05	127
1413.49	93
1413.92	145
1414.36	129
1414.79	173
1415.23	67
1415.66	141
1416.1	141
1416.53	117
1416.96	161
1417.4	95
1417.83	133
1418.27	99
1418.7	127
1419.13	99
1419.57	115
1420	75
1420.44	141
1420.87	127
1421.3	97
1421.74	135
1422.17	97
1422.61	137
1423.04	113
1423.47	119
1423.91	135
1424.34	109
1424.77	111
1425.21	135
1425.64	109
1426.07	125
1426.51	107
1426.94	101
1427.38	131
1427.81	97
1428.24	105
1428.68	161
1429.11	99
1429.54	109
1429.98	133
1430.41	111
1430.84	159
1431.28	87
1431.71	123
1432.14	117
1432.57	127
1433.01	105
1433.44	155
1433.87	103
1434.31	119
1434.74	141
1435.17	83
1435.61	153
1436.04	47
1436.47	149
1436.9	95
1437.34	131
1437.77	115
1438.2	107
1438.63	121
1439.07	99
1439.5	145
1439.93	95
1440.36	155
1440.8	53
1441.23	145
1441.66	113
1442.09	111
1442.53	135
1442.96	85
1443.39	125
1443.82	81
1444.26	121
1444.69	111
1445.12	127
1445.55	69
1445.98	141
1446.42	117
1446.85	119
1447.28	117
1447.71	87
1448.14	129
1448.57	117
1449.01	107
1449.44	147
1449.87	103
1450.3	91
1450.73	145
1451.17	127
1451.6	121
1452.03	107
1452.46	113
1452.89	121
1453.32	131
1453.76	99
1454.19	159
1454.62	93
1455.05	113
1455.48	131
1455.91	105
1456.34	157
1456.77	77
1457.21	131
1457.64	115
1458.07	137
1458.5	95
1458.93	134.467
1459.36	78.0412
1459.79	122.821
1460.22	118.559
1460.65	104.255
1461.08	145.121
1461.52	58.7316
1461.95	146.338
1462.38	129.477
1462.81	138.244
1463.24	113.096
1463.67	120.74
1464.1	95.8851
1464.53	124.832
1464.96	123.796
1465.39	104.708
1465.82	142.034
1466.25	65.3123
1466.68	151.33
1467.11	95.8395
1467.54	122.564
1467.98	109.16
1468.41	94.1017
1468.84	127.954
1469.27	116.034
1469.7	117.184
1470.13	126.944
1470.56	111.979
1470.99	104.922
1471.42	129.503
1471.85	109.753
1472.28	111.71
1472.71	126.258
1473.14	105.22
1473.57	137.358
1474	117.402
1474.43	108.833
1474.86	133.146
1475.29	99.8366
1475.72	133.657
1476.15	122.871
1476.58	112.847
1477.01	117.776
1477.44	111.722
1477.87	102.074
1478.3	137.719
1478.72	114.481
1479.15	97.5643
1479.58	133.195
1480.01	85.9497
1480.44	138.495
1480.87	97.013
1481.3	112.314
1481.73	123.522
1482.16	108.952
1482.59	114.292
1483.02	129.395
1483.45	120.371
1483.88	100.41
1484.31	117.028
1484.74	109.688
1485.17	131.19
1485.59	110.444
1486.02	113.728
1486.45	132.541
1486.88	111.622
1487.31	149.918
1487.74	113.78
1488.17	121.045
1488.6	116.269
1489.02	118.262
1489.45	106.628
1489.88	127.768
1490.31	116.55
1490.74	116.398
1491.17	137.563
1491.6	110.621
1492.03	139.892
1492.45	92.9777
1492.88	109.997
1493.31	115.296
1493.74	107.279
1494.17	115.754
1494.6	116.229
1495.02	114.452
1495.45	118.098
1495.88	129.875
1496.31	109.812
1496.74	134.001
1497.17	113.341
1497.59	105.677
1498.02	124.638
1498.45	110.111
1498.88	131.52
1499.31	120.454
1499.73	114.285
1500.16	123.019
1500.59	123.341
1501.02	131.296
1501.45	133.714
1501.87	122.03
1502.13	61
1502.56	147
1502.99	105
1503.43	105
1503.86	141
1504.29	87
1504.72	139
1505.16	109
1505.59	141
1506.02	111
1506.46	129
1506.89	85
1507.32	143
1507.75	123
1508.19	127
1508.62	127
1509.05	105
1509.49	139
1509.92	111
1510.35	123
1510.78	157
1511.21	113
1511.65	113
1512.08	149
1512.51	111
1512.94	133
1513.38	109
1513.81	109
1514.24	117
1514.67	141
1515.11	93
1515.54	137
1515.97	87
1516.4	111
1516.83	145
1517.27	115
1517.7	147
1518.13	73
1518.56	145
1518.99	87
1519.42	139
1519.86	87
1520.29	145
1520.72	81
1521.15	133
1521.58	135
1522.01	85
1522.45	165
1522.88	49
1523.31	161
1523.74	117
1524.17	133
1524.6	109
1525.04	115
1525.47	111
1525.9	131
1526.33	133
1526.76	115
1527.19	167
1527.62	51
1528.05	139
1528.49	111
1528.92	119
1529.35	111
1529.78	101
1530.21	111
1530.64	125
1531.07	129
1531.5	139
1531.93	147
1532.37	73
1532.8	159
1533.23	127
1533.66	121
1534.09	115
1534.52	127
1534.95	123
1535.38	139
1535.81	117
1536.24	157
1536.67	123
1537.1	101
1537.53	137
1537.96	135
1538.39	127
1538.82	137
1539.26	107
1539.68	127
1540.12	139
1540.55	93
1540.98	165
1541.41	77
1541.84	139
1542.27	109
1542.7	149
1543.13	115
1543.56	83
1543.99	109
1544.42	111
1544.85	145
1545.28	83
1545.71	165
1546.14	71
1546.57	147
1547	121
1547.43	117
1547.86	147
1548.29	67
1548.72	159
1549.14	125
1549.57	149
1550.01	101
1550.43	151
1550.86	93
1551.29	147
1551.72	149
1552.15	113
1552.58	165
1553.01	69
1553.44	151
1553.87	115
1554.3	129
1554.73	119
1555.16	139
1555.59	117
1556.01	125
1556.44	127
1556.87	127
1557.3	155
1557.73	77
1558.16	161
1558.59	105
1559.02	131
1559.45	121
1559.88	115
1560.3	143
1560.73	143
1561.16	119
1561.59	127
1562.02	115
1562.45	103
1562.88	151
1563.31	125
1563.73	121
1564.16	119
1564.59	103
1565.02	139
1565.45	127
1565.88	117
1566.3	161
1566.73	111
1567.16	131
1567.59	139
1568.02	159
1568.45	107
1568.88	147
1569.3	125
1569.73	153
1570.16	153
1570.59	93
1571.01	183
1571.44	81
1571.87	165
1572.3	133
1572.73	139
1573.15	143
1573.58	107
1574.01	137
1574.44	147
1574.87	163
1575.29	85
1575.72	187
1576.15	87
1576.58	175
1577	141
1577.43	149
1577.86	159
1578.29	123
1578.71	159
1579.14	163
1579.57	177
1580	129
1580.42	169
1580.85	129
1581.28	181
1581.71	165
1582.13	167
1582.56	173
1582.99	145
1583.41	203
1583.84	205
1584.27	191
1584.7	165
1585.12	207
1585.55	179
1585.98	239
1586.4	183
1586.83	225
1587.26	239
1587.68	207
1588.11	253
1588.54	243
1588.96	261
1589.39	239
1589.82	219
1590.24	251
1590.67	265
1591.1	233
1591.52	287
1591.95	219
1592.38	197
1592.8	209
1593.23	235
1593.65	197
1594.08	229
1594.51	177
1594.93	197
1595.36	213
1595.79	141
1596.21	193
1596.64	125
1597.06	191
1597.49	135
1597.92	187
1598.34	135
1598.77	179
1599.19	111
1599.62	165
1600.05	145
1600.47	105
1600.9	201
1601.32	91
1601.75	171
1602.18	115
1602.6	171
1603.03	125
1603.45	139
1603.88	141
1604.3	149
1604.73	163
1605.15	115
1605.58	183
1606	89
1606.43	143
1606.86	109
1607.28	125
1607.71	145
1608.13	117
1608.56	115
1608.98	139
1609.41	123
1609.83	117
1610.26	139
1610.68	119
1611.11	155
1611.53	113
1611.96	117
1612.38	169
1612.81	113
1613.23	119
1613.66	141
1614.08	103
1614.51	159
1614.93	105
1615.36	143
1615.78	139
1616.21	125
1616.63	115
1617.06	131
1617.48	99
1617.9	105
1618.33	145
1618.75	117
1619.18	179
1619.6	69
1620.03	141
1620.45	119
1620.88	125
1621.3	139
1621.72	115
1622.15	125
1622.57	109
1623	143
1623.42	97
1623.85	161
1624.27	75
1624.69	163
1625.12	115
1625.54	127
1625.97	167
1626.39	97
1626.81	141
1627.24	77
1627.66	155
1628.08	89
1628.51	147
1628.93	73
1629.36	133
1629.78	131
1630.2	105
1630.63	151
1631.05	77
1631.47	151
1631.9	97
1632.32	135
1632.74	129
1633.17	125
1633.59	109
1634.01	131
1634.44	121
1634.86	117
1635.28	131
1635.71	101
1636.13	143
1636.55	127
1636.98	155
1637.4	163
1637.82	109
1638.25	101
1638.67	133
1639.09	113
1639.51	157
1639.94	93
1640.36	123
1640.78	117
1641.21	127
1641.63	127
1642.05	133
1642.47	89
1642.9	105
1643.32	141
1643.74	93
1644.17	153
1644.59	83
1645.01	149
1645.43	117
1645.86	123
1646.28	125
1646.7	133
1647.12	125
1647.55	111
1647.97	149
1648.39	103
1648.81	191
1649.23	73
1649.66	129
1650.08	125
1650.5	127
1650.92	127
1651.35	119
1651.77	117
1652.19	103
1652.61	143
1653.03	97
1653.45	155
1653.88	65
1654.3	155
1654.72	99
1655.14	117
1655.56	143
1655.99	91
1656.41	129
1656.83	99
1657.25	155
1657.67	91
1658.09	135
1658.52	77
1658.94	157
1659.36	123
1659.78	117
1660.2	159
1660.62	93
1661.04	161
1661.47	107
1661.89	129
1662.31	141
1662.73	97
1663.15	81
1663.57	127
1663.99	121
1664.41	105
1664.83	127
1665.26	95
1665.68	121
1666.1	119
1666.52	103
1666.94	153
1667.36	89
1667.78	107
1668.2	141
1668.62	127
1669.04	149
1669.46	99
1669.89	119
1670.31	125
1670.73	143
1671.15	107
1671.57	153
1671.99	107
1672.41	103
1672.83	141
1673.25	91
1673.67	161
1674.09	67
1674.51	161
1674.93	147
1675.35	131
1675.77	105
1676.19	151
1676.61	97
1677.03	115
1677.45	141
1677.87	95
1678.29	171
1678.71	49
1679.13	139
1679.55	111
1679.97	147
1680.39	109
1680.81	113
1681.23	101
1681.65	113
1682.07	139
1682.49	101
1682.91	133
1683.33	59
1683.75	145
1684.17	115
1684.59	131
1685.01	121
1685.43	87
1685.85	135
1686.27	135
1686.69	125
1687.11	117
1687.53	141
1687.95	83
1688.37	147
1688.78	117
1689.2	107
1689.62	133
1690.04	97
1690.46	129
1690.88	129
1691.3	109
1691.72	145
1692.14	99
1692.56	117
1692.98	119
1693.39	117
1693.81	125
1694.23	117
1694.65	113
1695.07	125
1695.49	141
1695.91	93
1696.33	171
1696.75	83
1697.16	107
1697.58	133
1698	121
1698.42	127
1698.84	87
1699.26	133
1699.68	133
1700.09	149
1700.51	73
1700.93	141
1701.35	75
1701.77	121
1702.19	123
1702.6	103
1703.02	147
1703.44	69
1703.86	139
1704.28	121
1704.69	145
1705.11	91
1705.53	131
1705.95	77
1706.37	147
1706.78	131
1707.2	107
1707.62	151
1708.04	61
1708.46	147
1708.87	117
1709.29	137
1709.71	97
1710.13	111
1710.54	111
1710.96	145
1711.38	119
1711.8	91
1712.22	141
1712.63	93
1713.05	155
1713.47	107
1713.89	131
1714.3	135
1714.72	117
1715.14	121
1715.56	125
1715.97	113
1716.39	131
1716.81	97
1717.22	97
1717.64	141
1718.06	139
1718.48	113
1718.89	113
1719.31	87
1719.73	129
1720.14	159
1720.56	111
1720.98	171
1721.39	101
1721.81	131
1722.23	109
1722.64	129
1723.06	119
1723.48	113
1723.89	105
1724.31	117
1724.73	147
1725.14	73
1725.56	169
1725.98	83
1726.39	145
1726.81	123
1727.23	129
1727.64	135
1728.06	83
1728.48	127
1728.89	113
1729.31	159
1729.72	85
1730.14	163
1730.56	77
1730.97	145
1731.39	115
1731.8	113
1732.22	141
1732.64	97
1733.05	165
1733.47	117
1733.89	127
1734.3	87
1734.72	147
1735.13	85
1735.55	143
1735.96	119
1736.38	97
1736.8	135
1737.21	77
1737.63	137
1738.04	103
1738.46	105
1738.87	103
1739.29	93
1739.71	103
1740.12	121
1740.54	93
1740.95	117
1741.37	137
1741.78	103
1742.2	143
1742.61	123
1743.03	115
1743.44	123
1743.86	91
1744.27	119
1744.69	131
1745.1	95
1745.52	149
1745.93	101
1746.35	143
1746.77	107
1747.18	127
1747.59	103
1748.01	113
1748.42	81
1748.84	123
1749.25	123
1749.67	73
1750.08	147
1750.5	79
1750.91	147
1751.33	95
1751.74	129
1752.16	101
1752.57	109
1752.99	123
1753.4	141
1753.81	161
1754.23	83
1754.64	179
1755.06	81
1755.47	153
1755.89	103
1756.3	129
1756.72	135
1757.13	95
1757.54	105
1757.96	133
1758.37	139
1758.78	87
1759.2	139
1759.61	75
1760.03	155
1760.44	97
1760.86	123
1761.27	125
1761.68	103
1762.1	113
1762.51	135
1762.92	111
1763.34	107
1763.75	105
1764.17	121
1764.58	143
1764.99	83
1765.41	121
1765.82	135
1766.23	105
1766.65	109
1767.06	103
1767.47	111
1767.89	133
1768.3	69
1768.71	123
1769.13	133
1769.54	103
1769.95	107
1770.37	121
1770.78	99
1771.19	105
1771.61	135
1772.02	99
1772.43	157
1772.85	63
1773.26	145
1773.67	115
1774.09	89
1774.5	133
1774.91	81
1775.32	143
1775.74	79
1776.15	139
1776.56	79
1776.97	153
1777.39	93
1777.8	147
1778.21	121
1778.62	95
1779.04	137
1779.45	75
1779.86	129
1780.28	89
1780.69	131
1781.1	123
1781.51	125
1781.92	79
1782.34	123
1782.75	121
1783.16	99
1783.57	123
1783.99	69
1784.4	125
1784.81	117
1785.22	115
1785.63	123
1786.05	107
1786.46	101
1786.87	123
1787.28	97
1787.69	111
1788.11	145
1788.52	83
1788.93	141
1789.34	107
1789.75	117
1790.17	129
1790.58	103
1790.99	107
1791.4	135
1791.81	99
1792.22	129
1792.63	101
1793.05	121
1793.46	111
1793.87	101
1794.28	115
1794.69	149
1795.1	89
1795.52	87
1795.93	115
1796.34	107
1796.75	149
1797.16	71
1797.57	141
1797.98	117
1798.39	129
1798.81	111
1799.22	125
1799.63	109
1800.04	113
1800.45	141
1800.86	91
1801.27	163
1801.68	45
1802.09	139
1802.5	97
1802.91	123
1803.32	131
1803.73	115
1804.15	129
1804.56	117
1804.97	145
1805.38	93
1805.79	155
1806.2	45
1806.61	157
1807.02	117
1807.43	107
1807.84	139
1808.25	97
1808.66	117
1809.07	93
1809.48	113
1809.89	99
1810.3	115
1810.71	75
1811.12	149
1811.53	117
1811.94	117
1812.35	123
1812.76	97
1813.17	115
1813.58	111
1813.99	109
1814.4	149
1814.81	81
1815.22	87
1815.63	125
1816.04	115
1816.45	131
1816.86	83
1817.27	113
1817.68	131
1818.09	131
1818.5	93
1818.91	135
1819.32	79
1819.73	131
1820.14	131
1820.55	105
1820.96	143
1821.37	73
1821.78	129
1822.19	121
1822.6	139
1823.01	87
1823.42	149
1823.82	103
1824.23	135
1824.64	141
1825.05	105
1825.46	159
1825.87	61
1826.28	139
1826.69	105
1827.1	133
1827.51	87
1827.91	129
1828.32	101
1828.73	127
1829.14	137
1829.55	95
1829.96	143
1830.37	43
1830.78	163
1831.18	99
1831.59	119
1832	135
1832.41	97
1832.82	127
1833.23	91
1833.64	147
1834.05	103
1834.45	145
1834.86	51
1835.27	137
1835.68	119
1836.09	103
1836.49	127
1836.9	93
1837.31	127
1837.72	119
1838.13	99
1838.53	133
1838.94	95
1839.35	69
1839.76	133
1840.17	109
1840.58	117
1840.98	111
1841.39	95
1841.8	107
1842.21	129
1842.61	97
1843.02	137
1843.43	41
1843.84	91
1844.25	123
1844.65	123
1845.06	129
1845.47	97
1845.88	113
1846.28	115.006
1846.69	111.235
1847.1	73.384
1847.51	157.475
1847.91	68.9339
1848.32	135.983
1848.73	98.1601
1849.14	116.888
1849.54	128.484
1849.95	84.5675
1850.36	114.642
1850.77	120.465
1851.17	131.252
1851.58	67.5077
1851.99	143.568
1852.39	74.1296
1852.8	149.186
1853.21	111.872
1853.62	103.57
1854.02	135.667
1854.43	76.1067
1854.84	133.388
1855.24	111.722
1855.65	137.916
1856.06	68.3638
1856.46	124.238
1856.87	83.0142
1857.28	137.213
1857.68	112.927
1858.09	105.067
1858.5	133.156
1858.9	76.8621
1859.31	131.445
1859.72	119.164
1860.12	114.287
1860.53	97.7239
1860.94	107.494
1861.34	105.471
1861.75	124.431
1862.15	105.09
1862.56	102.51
1862.97	117.545
1863.37	109.974
1863.78	117.058
1864.19	135.584
1864.59	88.8496
1865	104.875
1865.4	110.231
1865.81	125.518
1866.22	132.418
1866.62	105.599
1867.03	110.748
1867.43	103.217
1867.84	120.777
1868.25	115.339
1868.65	136.314
1869.06	95.0695
1869.46	111.664
1869.87	107.205
1870.28	118.953
1870.68	132.91
1871.09	94.0063
1871.49	124.502
1871.9	97.9654
1872.3	132.529
1872.71	104.679
1873.12	129.836
1873.52	99.4711
1873.93	114.556
1874.33	113.832
1874.74	122.851
1875.14	129.153
1875.55	90.772
1875.95	110.715
1876.36	104.635
1876.76	133.079
1877.17	106.091
1877.57	119.579
1877.98	111.821
1878.38	109.403
1878.79	114.963
1879.19	107.774
1879.6	122.144
1880	104.556
1880.41	102.629
1880.81	114.729
1881.22	112.372
1881.63	103.326
1882.03	96.6118
1882.43	111.829
1882.84	110.744
1883.24	137.173
1883.65	115.206
1884.05	127.398
1884.46	133.596
1884.86	83.2722
1885.27	129.767
1885.67	119.452
1886.08	136.512
1886.48	109.735
1886.89	98.6693
1887.29	106.803
1887.69	116.161
1888.1	106.472
1888.5	121.077
1888.85	111
1889.26	81
1889.67	131
1890.08	123
1890.49	121
1890.9	125
1891.3	89
1891.71	117
1892.12	133
1892.53	85
1892.94	139
1893.35	63
1893.76	111
1894.17	119
1894.58	123
1894.99	89
1895.4	103
1895.81	83
1896.22	113
1896.62	117
1897.03	85
1897.44	153
1897.85	71
1898.26	145
1898.67	119
1899.08	129
1899.49	105
1899.9	101
1900.3	105
1900.71	123
1901.12	149
1901.53	77
1901.94	165
1902.35	69
1902.75	147
1903.16	97
1903.57	129
1903.98	133
1904.39	87
1904.8	113
1905.21	123
1905.61	143
1906.02	55
1906.43	145
1906.84	55
1907.25	135
1907.66	111
1908.06	105
1908.47	137
1908.88	73
1909.29	125
1909.7	101
1910.1	131
1910.51	79
1910.92	125
1911.33	103
1911.73	143
1912.14	105
1912.55	115
1912.96	151
1913.37	81
1913.77	137
1914.18	127
1914.59	139
1915	109
1915.4	89
1915.81	105
1916.22	141
1916.63	97
1917.03	123
1917.44	101
1917.85	99
1918.26	117
1918.66	133
1919.07	99
1919.48	115
1919.89	79
1920.29	129
1920.7	133
1921.11	91
1921.51	139
1921.92	113
1922.33	117
1922.73	107
1923.14	115
1923.55	97
1923.96	129
1924.36	101
1924.77	117
1925.18	145
1925.58	85
1925.99	157
1926.4	89
1926.8	117
1927.21	109
1927.62	113
1928.02	73
1928.43	119
1928.84	83
1929.24	133
1929.65	133
1930.06	67
1930.46	143
1930.87	63
1931.28	127
1931.68	93
1932.09	119
1932.49	117
1932.9	117
1933.31	115
1933.71	111
1934.12	141
1934.53	67
1934.93	163
1935.34	65
1935.74	157
1936.15	101
1936.56	119
1936.96	121
1937.37	97
1937.78	121
1938.18	111
1938.59	125
1938.99	95
1939.4	141
1939.8	85
1940.21	135
1940.62	93
1941.02	111
1941.43	133
1941.83	101
1942.24	123
1942.64	115
1943.05	95
1943.45	111
1943.86	109
1944.27	95
1944.67	139
1945.08	93
1945.48	111
1945.89	135
1946.29	87
1946.7	115
1947.1	149
1947.51	95
1947.91	141
1948.32	95
1948.72	117
1949.13	149
1949.53	83
1949.94	119
1950.34	127
1950.75	113
1951.15	109
1951.56	127
1951.96	113
1952.37	139
1952.77	67
1953.18	133
1953.58	121
1953.99	101
1954.39	141
1954.8	89
1955.2	115
1955.61	91
1956.01	143
1956.42	81
1956.82	151
1957.23	49
1957.63	127
1958.03	131
1958.44	99
1958.84	151
1959.25	73
1959.65	141
1960.06	93
1960.46	149
1960.86	95
1961.27	141
1961.67	81
1962.08	137
1962.48	119
1962.89	97
1963.29	153
1963.69	85
1964.1	167
1964.5	89
1964.91	111
1965.31	125
1965.71	103
1966.12	91
1966.52	123
1966.93	115
1967.33	101
1967.73	127
1968.14	99
1968.54	131
1968.94	129
1969.35	119
1969.75	147
1970.15	107
1970.56	97
1970.96	143
1971.37	115
1971.77	145
1972.17	87
1972.58	125
1972.98	107
1973.38	123
1973.79	113
1974.19	155
1974.59	99
1974.99	101
1975.4	135
1975.8	93
1976.21	147
1976.61	65
1977.01	143
1977.41	89
1977.82	133
1978.22	101
1978.62	141
1979.03	101
1979.43	117
1979.83	121
1980.24	109
1980.64	161
1981.04	71
1981.44	153
1981.85	87
1982.25	137
1982.65	127
1983.05	129
1983.46	113
1983.86	117
1984.26	141
1984.66	89
1985.07	147
1985.47	45
1985.87	157
1986.27	109
1986.68	109
1987.08	131
1987.48	77
1987.88	115
1988.29	117
1988.69	129
1989.09	113
1989.49	119
1989.89	65
1990.3	123
1990.7	127
1991.1	109
1991.5	119
1991.9	83
1992.31	121
1992.71	133
1993.11	127
1993.51	129
1993.91	127
1994.32	95
1994.72	123
1995.12	115
1995.52	129
1995.92	109
1996.32	97
1996.73	109
1997.13	141
1997.53	107
1997.93	153
1998.33	81
1998.73	105
1999.14	133
1999.54	109
1999.94	129
2000.34	77
2000.74	119
2001.14	115
2001.54	133
2001.94	81
2002.35	157
2002.75	71
2003.15	111
2003.55	111
2003.95	103
2004.35	139
2004.75	67
2005.15	141
2005.55	111
2005.96	139
2006.36	85
2006.76	147
2007.16	79
2007.56	125
2007.96	127
2008.36	115
2008.76	157
2009.16	45
2009.56	135
2009.96	129
2010.36	129
2010.76	103
2011.16	121
2011.57	103
2011.97	131
2012.37	135
2012.77	95
2013.17	155
2013.57	53
2013.97	145
2014.37	105
2014.77	139
2015.17	143
2015.57	103
2015.97	129
2016.37	127
2016.77	117
2017.17	123
2017.57	113
2017.97	83
2018.37	137
2018.77	111
2019.17	111
2019.57	113
2019.97	97
2020.37	121
2020.77	125
2021.17	99
2021.57	135
2021.97	95
2022.37	91
2022.77	121
2023.17	105
2023.57	115
2023.97	107
2024.37	95
2024.77	105
2025.17	135
2025.57	99
2025.97	165
2026.37	85
2026.77	113
2027.16	131
2027.56	115
2027.96	129
2028.36	119
2028.76	109
2029.16	123
2029.56	151
2029.96	73
2030.36	145
2030.76	71
2031.16	167
2031.56	121
2031.96	117
2032.35	127
2032.75	71
2033.15	133
2033.55	105
2033.95	135
2034.35	63
2034.75	151
2035.15	73
2035.54	153
2035.94	101
2036.34	111
2036.74	153
2037.14	85
2037.54	153
2037.94	111
2038.34	157
2038.74	99
2039.13	139
2039.53	111
2039.93	147
2040.33	121
2040.73	119
2041.12	145
2041.52	81
2041.92	157
2042.32	109
2042.72	125
2043.12	117
2043.51	99
2043.91	125
2044.31	121
2044.71	101
2045.11	131
2045.51	109
2045.9	111
2046.3	107
2046.7	135
2047.1	103
2047.49	129
2047.89	101
2048.29	125
2048.69	137
2049.09	83
2049.48	149
2049.88	87
2050.28	141
2050.68	121
2051.07	127
2051.47	107
2051.87	143
2052.27	95
2052.67	139
2053.06	137
2053.46	85
2053.86	143
2054.26	77
2054.65	131
2055.05	83
2055.45	139
2055.85	103
2056.24	139
2056.64	83
2057.04	139
2057.43	111
2057.83	81
2058.23	163
2058.62	71
2059.02	155
2059.42	73
2059.82	111
2060.21	121
2060.61	123
2061.01	123
2061.4	139
2061.8	123
2062.2	91
2062.59	147
2062.99	85
2063.39	143
2063.79	101
2064.18	121
2064.58	157
2064.97	89
2065.37	137
2065.77	127
2066.16	111
2066.56	93
2066.96	101
2067.35	105
2067.75	111
2068.15	101
2068.54	95
2068.94	135
2069.34	93
2069.73	103
2070.13	127
2070.52	99
2070.92	141
2071.32	93
2071.71	127
2072.11	125
2072.51	107
2072.9	133
2073.3	133
2073.69	111
2074.09	119
2074.49	147
2074.88	81
2075.28	153
2075.67	83
2076.07	127
2076.47	101
2076.86	101
2077.26	129
2077.65	101
2078.05	107
2078.44	93
2078.84	145
2079.23	97
2079.63	145
2080.03	61
2080.42	139
2080.82	121
2081.21	111
2081.61	137
2082	85
2082.4	115
2082.79	91
2083.19	133
2083.58	91
2083.98	139
2084.37	67
2084.77	145
2085.16	119
2085.56	103
2085.95	143
2086.35	77
2086.74	153
2087.14	81
2087.53	139
2087.93	135
2088.32	123
2088.72	93
2089.11	125
2089.51	109
2089.9	99
2090.3	159
2090.69	75
2091.09	141
2091.48	101
2091.88	105
2092.27	127
2092.67	91
2093.06	117
2093.46	117
2093.85	115
2094.25	125
2094.64	127
2095.03	115
2095.43	119
2095.82	133
2096.22	113
2096.61	147
2097.01	85
2097.4	97
2097.79	135
2098.19	111
2098.58	149
2098.98	85
2099.37	123
2099.76	121
2100.16	105
2100.55	103
2100.95	109
2101.34	99
2101.73	99
2102.13	131
2102.52	95
2102.92	147
2103.31	75
2103.7	137
2104.1	113
2104.49	121
2104.88	113
2105.28	121
2105.67	101
2106.07	107
2106.46	143
2106.85	95
2107.25	173
2107.64	63
2108.03	133
2108.43	117
2108.82	121
2109.21	131
2109.61	95
2110	121
2110.39	87
2110.79	135
2111.18	95
2111.57	149
2111.97	49
2112.36	137
2112.75	113
2113.15	113
2113.54	155
2113.93	79
2114.32	147
2114.72	95
2115.11	149
2115.5	105
2115.9	121
2116.29	77
2116.68	143
2117.08	129
2117.47	105
2117.86	117
2118.25	97
2118.65	113
2119.04	117
2119.43	107
2119.82	147
2120.22	103
2120.61	87
2121	131
2121.39	117
2121.79	109
2122.18	99
2122.57	91
2122.96	103
2123.36	125
2123.75	103
2124.14	133
2124.53	97
2124.93	107
2125.32	129
2125.71	89
2126.1	137
2126.49	73
2126.89	113
2127.28	111
2127.67	133
2128.06	95
2128.45	157
2128.85	73
2129.24	117
2129.63	123
2130.02	113
2130.41	125
2130.81	73
2131.2	117
2131.59	105
2131.98	133
2132.37	97
2132.76	149
2133.16	83
2133.55	121
2133.94	117
2134.33	91
2134.72	131
2135.11	39
2135.5	147
2135.9	95
2136.29	139
2136.68	93
2137.07	109
2137.46	109
2137.85	131
2138.24	123
2138.63	99
2139.03	141
2139.42	55
2139.81	153
2140.2	113
2140.59	125
2140.98	105
2141.37	103
2141.76	107
2142.15	133
2142.55	123
2142.94	119
2143.33	113
2143.72	93
2144.11	135
2144.5	111
2144.89	103
2145.28	111
2145.67	91
2146.06	101
2146.45	127
2146.84	79
2147.23	155
2147.62	83
2148.02	101
2148.4	119
2148.8	113
2149.19	127
2149.58	113
2149.97	95
2150.36	109
2150.75	129
2151.14	99
2151.53	163
2151.92	61
2152.31	133
2152.7	117
2153.09	105
2153.48	109
2153.87	91
2154.26	119
2154.65	113
2155.04	155
2155.43	73
2155.82	171
2156.21	59
2156.6	149
2156.99	121
2157.38	103
2157.77	143
2158.16	79
2158.55	125
2158.94	101
2159.33	153
2159.72	65
2160.11	147
2160.5	71
2160.89	127
2161.28	111
2161.66	83
2162.05	139
2162.44	41
2162.83	135
2163.22	91
2163.61	149
2164	103
2164.39	141
2164.78	101
2165.17	141
2165.56	107
2165.95	113
2166.34	145
2166.73	55
2167.11	129
2167.5	125
2167.89	121
2168.28	117
2168.67	91
2169.06	109
2169.45	129
2169.84	103
2170.23	121
2170.62	99
2171	101
2171.39	127
2171.78	113
2172.17	97
2172.56	107
2172.95	93
2173.34	105
2173.73	131
2174.11	93
2174.5	157
2174.89	93
2175.28	123
2175.67	113
2176.06	125
2176.45	99
2176.83	119
2177.22	113
2177.61	131
2178	131
2178.39	85
2178.78	163
2179.16	69
2179.55	115
2179.94	107
2180.33	117
2180.72	109
2181.1	97
2181.49	117
2181.88	105
2182.27	131
2182.66	71
2183.04	155
2183.43	61
2183.82	143
2184.21	85
2184.6	109
2184.98	125
2185.37	89
2185.76	137
2186.15	105
2186.53	139
2186.92	77
2187.31	153
2187.7	75
2188.08	137
2188.47	101
2188.86	107
2189.25	139
2189.63	77
2190.02	133
2190.41	103
2190.8	137
2191.18	97
2191.57	121
2191.96	99
2192.34	139
2192.73	101
2193.12	89
2193.51	123
2193.89	77
2194.28	117
2194.67	117
2195.06	107
2195.44	101
2195.83	107
2196.22	95
2196.6	127
2196.99	103
2197.38	125
2197.76	101
2198.15	103
2198.54	121
2198.92	119
2199.31	101
2199.7	129
2200.08	87
2200.47	115
2200.86	131
2201.24	89
2201.63	137
2202.02	99
2202.4	123
2202.79	113
2203.18	131
2203.56	91
2203.95	131
2204.34	81
2204.72	139
2205.11	111
2205.49	87
2205.88	141
2206.27	57
2206.65	119
2207.04	95
2207.43	145
2207.81	99
2208.2	139
2208.58	87
2208.97	145
2209.36	125
2209.74	75
2210.13	155
2210.51	57
2210.9	147
2211.29	91
2211.67	135
2212.06	131
2212.44	101
2212.83	127
2213.21	125
2213.6	117
2213.98	73
2214.37	143
2214.76	79
2215.14	129
2215.53	79
2215.91	98.998
2216.3	128.432
2216.69	101.487
2217.07	98.8289
2217.46	124.067
2217.84	107.981
2218.23	100.322
2218.61	98.5567
2219	98.9654
2219.38	122.811
2219.77	94.3589
2220.15	109.058
2220.54	127.113
2220.92	101.743
2221.31	110.108
2221.69	134.733
2222.08	95.5106
2222.46	144.611
2222.85	77.9252
2223.23	126.544
2223.62	133.589
2224	104.19
2224.39	116.007
2224.77	119.797
2225.16	91.5355
2225.54	117.638
2225.93	119.286
2226.31	87.5296
2226.7	134.223
2227.08	67.8012
2227.47	119.794
2227.85	97.7944
2228.23	101.18
2228.62	121.14
2229	121.257
2229.39	106.502
2229.77	100.963
2230.16	100.131
2230.54	89.4324
2230.92	136.778
2231.31	83.6123
2231.69	142.62
2232.08	93.9673
2232.46	110.955
2232.85	119.32
2233.23	107.672
2233.62	125.528
2234	103.469
2234.38	124.773
2234.77	107.115
2235.15	130.494
2235.54	80.4167
2235.92	138.924
2236.3	115.426
2236.69	120.776
2237.07	140.866
2237.46	87.0038
2237.84	119.122
2238.22	101.894
2238.61	110.944
2238.99	99.1721
2239.37	124.132
2239.76	95.2646
2240.14	128.073
2240.53	111.173
2240.91	100.155
2241.29	122.567
2241.68	91.3912
2242.06	125.07
2242.44	105.141
2242.83	106.11
2243.21	122.773
2243.59	119.278
2243.98	109.369
2244.36	118.642
2244.74	115.886
2245.13	109.657
2245.51	124.663
2245.89	102.838
2246.28	114.64
2246.66	134.676
2247.04	101.932
2247.43	119.095
2247.81	121.593
2248.19	101.373
2248.58	130.629
2248.96	92.8155
2249.34	111.497
2249.73	123.68
2250.11	90.8734
2250.49	101.866
2250.88	137.32
2251.26	80.69
2251.64	106.765
2252.02	130.179
2252.41	95.522
2252.79	147.667
2252.8	149
2253.18	85
2253.57	121
2253.96	121
2254.35	113
2254.74	99
2255.12	145
2255.51	97
2255.9	111
2256.29	123
2256.67	105
2257.06	155
2257.45	65
2257.84	133
2258.22	113
2258.61	137
2259	107
2259.39	115
2259.77	95
2260.16	99
2260.55	121
2260.94	75
2261.32	147
2261.71	43
2262.1	145
2262.48	83
2262.87	121
2263.26	105
2263.65	105
2264.03	109
2264.42	113
2264.81	131
2265.19	93
2265.58	141
2265.97	59
2266.35	161
2266.74	109
2267.13	117
2267.51	145
2267.9	79
2268.29	127
2268.67	95
2269.06	121
2269.45	113
2269.83	125
2270.22	69
2270.61	137
2270.99	107
2271.38	131
2271.77	133
2272.15	83
2272.54	123
2272.93	101
2273.31	121
2273.7	103
2274.08	123
2274.47	65
2274.86	155
2275.24	115
2275.63	115
2276.02	109
2276.4	83
2276.79	129
2277.17	119
2277.56	123
2277.95	115
2278.33	95
2278.72	105
2279.1	147
2279.49	117
2279.88	109
2280.26	109
2280.65	109
2281.03	131
2281.42	129
2281.8	95
2282.19	141
2282.58	97
2282.96	103
2283.35	137
2283.73	103
2284.12	139
2284.5	85
2284.89	133
2285.28	109
2285.66	151
2286.05	77
2286.43	141
2286.82	79
2287.2	93
2287.59	129
2287.97	91
2288.36	163
2288.74	59
2289.13	139
2289.51	115
2289.9	147
2290.28	97
2290.67	127
2291.05	95
2291.44	107
2291.82	141
2292.21	75
2292.59	157
2292.98	49
2293.36	139
2293.75	95
2294.13	121
2294.52	101
2294.9	119
2295.29	89
2295.67	99
2296.06	105
2296.44	87
2296.83	161
2297.21	65
2297.6	127
2297.98	109
2298.36	129
2298.75	115
2299.13	97
2299.52	99
2299.9	127
2300.29	113
2300.67	103
2301.06	119
2301.44	51
2301.82	143
2302.21	129
2302.59	137
2302.98	119
2303.36	99
2303.75	123
2304.13	137
2304.51	111
2304.9	109
2305.28	95
2305.67	85
2306.05	121
2306.44	127
2306.82	123
2307.2	125
2307.59	89
2307.97	125
2308.35	131
2308.74	81
2309.12	169
2309.51	95
2309.89	103
2310.27	121
2310.66	115
2311.04	109
2311.42	87
2311.81	99
2312.19	123
2312.57	131
2312.96	63
2313.34	161
2313.73	71
2314.11	139
2314.49	125
2314.88	123
2315.26	127
2315.64	69
2316.03	119
2316.41	115
2316.79	151
2317.18	77
2317.56	157
2317.94	87
2318.32	159
2318.71	111
2319.09	113
2319.47	129
2319.86	65
2320.24	133
2320.62	101
2321.01	137
2321.39	59
2321.77	141
2322.15	79
2322.54	155
2322.92	91
2323.3	103
2323.69	151
2324.07	67
2324.45	129
2324.83	101
2325.22	123
2325.6	79
2325.98	123
2326.36	107
2326.75	143
2327.13	115
2327.51	117
2327.89	137
2328.28	77
2328.66	147
2329.04	113
2329.42	115
2329.81	117
2330.19	105
2330.57	117
2330.95	125
2331.33	125
2331.72	113
2332.1	121
2332.48	111
2332.86	117
2333.24	123
2333.63	103
2334.01	141
2334.39	81
2334.77	121
2335.15	131
2335.54	83
2335.92	141
2336.3	111
2336.68	139
2337.06	129
2337.44	149
2337.83	117
2338.21	157
2338.59	95
2338.97	123
2339.35	131
2339.73	91
2340.12	151
2340.5	69
2340.88	121
2341.26	95
2341.64	123
2342.02	91
2342.41	131
2342.79	85
2343.17	131
2343.55	141
2343.93	107
2344.31	155
2344.69	83
2345.07	141
2345.45	99
2345.84	139
2346.22	113
2346.6	119
2346.98	99
2347.36	131
2347.74	125
2348.12	79
2348.5	171
2348.88	83
2349.26	149
2349.65	81
2350.03	131
2350.41	123
2350.79	95
2351.17	119
2351.55	115
2351.93	129
2352.31	87
2352.69	129
2353.07	83
2353.45	135
2353.83	89
2354.21	109
2354.59	139
2354.98	97
2355.35	99
2355.74	135
2356.12	115
2356.5	117
2356.88	127
2357.26	123
2357.64	141
2358.02	99
2358.4	119
2358.78	129
2359.16	105
2359.54	103
2359.92	135
2360.3	101
2360.68	123
2361.06	97
2361.44	131
2361.82	137
2362.2	87
2362.58	111
2362.96	103
2363.34	103
2363.72	119
2364.1	145
2364.48	101
2364.86	159
2365.24	69
2365.62	135
2366	127
2366.38	91
2366.75	141
2367.14	105
2367.51	107
2367.89	93
2368.27	139
2368.65	97
2369.03	153
2369.41	75
2369.79	159
2370.17	123
2370.55	111
2370.93	137
2371.31	83
2371.69	135
2372.07	83
2372.45	141
2372.83	93
2373.2	163
2373.58	75
2373.96	149
2374.34	117
2374.72	105
2375.1	155
2375.48	69
2375.86	141
2376.24	87
2376.61	139
2376.99	101
2377.37	129
2377.75	83
2378.13	129
2378.51	125
2378.89	101
2379.27	139
2379.65	93
2380.02	129
2380.4	107
2380.78	141
2381.16	139
2381.54	101
2381.92	85
2382.3	133
2382.67	129
2383.05	135
2383.43	133
2383.81	95
2384.19	115
2384.57	113
2384.94	105
2385.32	151
2385.7	99
2386.08	107
2386.46	133
2386.83	99
2387.21	147
2387.59	89
2387.97	113
2388.35	113
2388.73	115
2389.1	115
2389.48	153
2389.86	81
2390.24	129
2390.62	125
2390.99	121
2391.37	155
2391.75	63
2392.13	123
2392.5	95
2392.88	145
2393.26	117
2393.64	157
2394.01	81
2394.39	125
2394.77	127
2395.15	103
2395.52	157
2395.9	49
2396.28	157
2396.66	95
2397.04	153
2397.41	93
2397.79	117
2398.17	97
2398.54	131
2398.92	141
2399.3	95
2399.68	149
2400.05	65
2400.43	161
2400.81	105
2401.18	145
2401.56	123
2401.94	111
2402.32	101
2402.69	143
2403.07	139
2403.45	115
2403.82	139
2404.2	83
2404.58	133
2404.95	121
2405.33	139
2405.71	113
2406.09	93
2406.46	119
2406.84	135
2407.22	117
2407.59	121
2407.97	111
2408.34	93
2408.72	105.267
2409.1	102
2409.47	99.3333
2409.85	105.333
2410.23	103
2410.6	117
2410.98	149
2411.36	107
2411.73	165
2412.11	95
2412.49	115
2412.86	141
2413.24	127
2413.61	119
2413.99	147
2414.37	87
2414.74	135
2415.12	143
2415.5	71
2415.87	147
2416.25	65
2416.62	137
2417	105
2417.37	127
2417.75	137
2418.13	97
2418.5	119
2418.88	107
2419.25	169
2419.63	71
2420.01	169
2420.38	83
2420.76	149
2421.13	113
2421.51	139
2421.88	153
2422.26	87
2422.64	137
2423.01	117
2423.39	147
2423.76	89
2424.14	155
2424.51	77
2424.89	161
2425.26	111
2425.64	113
2426.01	155
2426.39	73
2426.76	125
2427.14	131
2427.52	133
2427.89	81
2428.26	135
2428.64	83
2429.02	145
2429.39	103
2429.77	115
2430.14	151
2430.52	97
2430.89	135
2431.26	123
2431.64	131
2432.02	131
2432.39	117
2432.77	119
2433.14	151
2433.51	115
2433.89	137
2434.26	125
2434.64	99
2435.01	143
2435.39	131
2435.76	131
2436.14	143
2436.51	107
2436.89	129
2437.26	155
2437.63	111
2438.01	143
2438.38	135
2438.76	119
2439.13	125
2439.51	147
2439.88	111
2440.26	151
2440.63	99
2441	121
2441.38	131
2441.75	101
2442.13	161
2442.5	103
2442.87	157
2443.25	125
2443.62	151
2444	111
2444.37	163
2444.74	117
2445.12	153
2445.49	147
2445.87	85
2446.24	171
2446.61	79
2446.99	169
2447.36	105
2447.73	135
2448.11	101
2448.48	135
2448.86	119
2449.23	133
2449.6	157
2449.98	81
2450.35	155
2450.72	101
2451.1	157
2451.47	117
2451.84	149
2452.22	117
2452.59	135
2452.97	129
2453.34	133
2453.71	135
2454.08	87
2454.46	155
2454.83	75
2455.2	149
2455.58	91
2455.95	137
2456.32	143
2456.7	105
2457.07	113
2457.44	115
2457.82	117
2458.19	109
2458.56	125
2458.93	95
2459.31	163
2459.68	109
2460.05	123
2460.43	147
2460.8	91
2461.17	113
2461.54	131
2461.92	125
2462.29	133
2462.66	125
2463.03	111
2463.41	131
2463.78	117
2464.15	123
2464.52	141
2464.9	105
2465.27	123
2465.64	139
2466.01	95
2466.39	163
2466.76	93
2467.13	121
2467.5	119
2467.88	113
2468.25	129
2468.62	125
2468.99	97
2469.37	101
2469.74	137
2470.11	115
2470.48	171
2470.85	57
2471.22	143
2471.6	127
2471.97	111
2472.34	133
2472.71	113
2473.08	127
2473.46	107
2473.83	143
2474.2	101
2474.57	143
2474.94	61
2475.32	157
2475.69	113
2476.06	123
2476.43	133
2476.8	111
2477.17	121
2477.55	103
2477.92	133
2478.29	91
2478.66	157
2479.03	67
2479.4	159
2479.77	111
2480.15	143
2480.52	137
2480.89	93
2481.26	119
2481.63	123
2482	125
2482.37	117
2482.74	135
2483.12	69
2483.49	163
2483.86	119
2484.23	125
2484.6	137
2484.97	97
2485.34	129
2485.71	111
2486.08	109
2486.46	159
2486.83	87
2487.2	105
2487.57	115
2487.94	115
2488.31	117
2488.68	99
2489.05	117
2489.42	119
2489.79	129
2490.16	101
2490.53	141
2490.9	95
2491.27	103
2491.64	123
2492.01	117
2492.38	137
2492.76	71
2493.13	135
2493.5	127
2493.87	143
2494.24	89
2494.61	147
2494.98	75
2495.35	121
2495.72	129
2496.09	125
2496.46	159
2496.83	59
2497.2	143
2497.57	103
2497.94	151
2498.31	93
2498.68	137
2499.05	97
2499.42	137
2499.79	119
2500.16	89
2500.53	153
2500.9	57
2501.27	149
2501.64	103
2502.01	139
2502.38	95
2502.75	119
2503.12	81
2503.49	133
2503.86	129
2504.23	101
2504.6	167
2504.97	55
2505.34	157
2505.7	135
2506.07	133
2506.44	125
2506.81	129
2507.18	125
2507.55	129
2507.92	125
2508.29	125
2508.66	143
2509.03	83
2509.4	159
2509.77	119
2510.14	107
2510.5	133
2510.88	97
2511.24	123
2511.61	129
2511.98	103
2512.35	127
2512.72	103
2513.09	95
2513.46	127
2513.83	133
2514.2	91
2514.56	105
2514.93	103
2515.3	123
2515.67	135
2516.04	105
2516.41	153
2516.78	75
2517.15	115
2517.51	109
2517.88	127
2518.25	125
2518.62	105
2518.99	113
2519.36	115
2519.73	133
2520.09	81
2520.46	155
2520.83	73
2521.2	123
2521.57	123
2521.94	119
2522.3	115
2522.67	89
2523.04	95
2523.41	107
2523.78	133
2524.15	59
2524.51	157
2524.88	81
2525.25	147
2525.62	117
2525.98	103
2526.35	135
2526.72	97
2527.09	117
2527.46	119
2527.83	145
2528.19	77
2528.56	139
2528.93	91
2529.3	149
2529.66	105
2530.03	101
2530.4	155
2530.77	63
2531.13	135
2531.5	115
2531.87	127
2532.24	95
2532.61	113
2532.97	93
2533.34	137
2533.71	103
2534.07	111
2534.44	135
2534.81	87
2535.18	137
2535.54	129
2535.91	119
2536.28	129
2536.65	95
2537.01	109
2537.38	125
2537.75	95
2538.11	119
2538.48	119
2538.85	113
2539.22	131
2539.58	145
2539.95	87
2540.32	129
2540.68	89
2541.05	123
2541.42	143
2541.78	81
2542.15	153
2542.52	105
2542.89	111
2543.25	123
2543.62	153
2543.99	95
2544.35	131
2544.72	79
2545.08	127
2545.45	125
2545.82	73
2546.19	147
2546.55	87
2546.92	129
2547.28	77
2547.65	143
2548.02	95
2548.38	141
2548.75	103
2549.12	131
2549.48	113
2549.85	81
2550.21	145
2550.58	77
2550.95	155
2551.31	71
2551.68	153
2552.05	103
2552.41	149
2552.78	105
2553.14	141
2553.51	119
2553.88	71
2554.24	149
2554.61	71
2554.97	151
2555.34	85
2555.71	123
2556.07	131
2556.44	101
2556.8	105
2557.17	137
2557.53	91
2557.9	95
2558.27	123
2558.63	95
2559	113
2559.36	89
2559.73	107
2560.09	145
2560.46	93
2560.82	103
2561.19	117
2561.55	119
2561.92	131
2562.29	103
2562.65	119
2563.02	123
2563.38	121
2563.75	107
2564.11	131
2564.48	101
2564.84	99
2565.21	135
2565.57	83.2211
2565.94	146.941
2566.3	74.8563
2566.67	134.983
2567.03	101.568
2567.4	115.347
2567.76	109.467
2568.13	136.602
2568.49	106.415
2568.86	104.37
2569.22	134.41
2569.59	86.0704
2569.95	152.132
2570.32	70.736
2570.68	141.675
2571.05	105.323
2571.41	130.59
2571.78	117.149
2572.14	112.343
2572.51	115.865
2572.87	106.782
2573.23	139.46
2573.6	85.2529
2573.96	149.721
2574.33	70.4044
2574.69	147.812
2575.06	107.729
2575.42	110.606
2575.79	128.673
2576.15	92.7012
2576.51	117.054
2576.88	105.686
2577.24	142.446
2577.61	121.264
2577.97	123.519
2578.34	119.869
2578.7	128.328
2579.06	118.001
2579.43	110.592
2579.79	132.593
2580.16	94.8714
2580.52	123.228
2580.88	120.295
2581.25	119.566
2581.61	101.263
2581.98	119.156
2582.34	87.2606
2582.7	127.626
2583.07	117.302
2583.43	123.551
2583.8	126.304
2584.16	100.025
2584.52	113.596
2584.89	117.648
2585.25	127.159
2585.61	119.231
2585.98	118.867
2586.34	92.2857
2586.7	136.913
2587.07	119.357
2587.43	114.374
2587.8	113.434
2588.16	109.824
2588.52	123.327
2588.88	117.934
2589.25	118.316
2589.61	111.103
2589.97	135.03
2590.34	90.618
2590.7	139.728
2591.06	97.7014
2591.43	133.298
2591.79	106.528
2592.15	114.262
2592.52	103.908
2592.88	127.234
2593.24	113.227
2593.61	84.9082
2593.97	142.135
2594.33	68.3366
2594.7	160.714
2595.06	97.072
2595.42	138.502
2595.78	113.228
2596.15	103.395
2596.51	98.1418
2596.87	132.018
2597.24	132.471
2597.6	101.523
2597.96	142.823
2598.32	104.678
2598.69	145.766
2599.05	112.255
2599.41	125.354
2599.78	137.116
2600.14	104.385
2600.5	107.085
2600.86	115.706
2600.95	117
2601.31	107
2601.68	115
2602.05	125
2602.42	105
2602.78	145
2603.15	89
2603.52	105
2603.89	151
2604.25	121
2604.62	129
2604.99	133
2605.35	117
2605.72	139
2606.09	117
2606.46	95
2606.82	139
2607.19	103
2607.56	121
2607.92	143
2608.29	111
2608.66	105
2609.03	133
2609.39	109
2609.76	161
2610.13	103
2610.49	141
2610.86	147
2611.23	95
2611.59	125
2611.96	133
2612.33	107
2612.69	129
2613.06	139
2613.43	87
2613.79	171
2614.16	75
2614.53	149
2614.89	141
2615.26	123
2615.62	147
2615.99	111
2616.36	157
2616.72	111
2617.09	179
2617.46	103
2617.82	177
2618.19	89
2618.56	141
2618.92	125
2619.29	109
2619.65	153
2620.02	87
2620.39	147
2620.75	125
2621.12	171
2621.48	121
2621.85	163
2622.22	105
2622.58	163
2622.95	119
2623.31	123
2623.68	161
2624.04	95
2624.41	159
2624.78	113
2625.14	151
2625.51	127
2625.87	153
2626.24	111
2626.6	155
2626.97	127
2627.34	119
2627.7	187
2628.07	117
2628.43	171
2628.8	135
2629.16	173
2629.53	165
2629.9	139
2630.26	113
2630.63	177
2630.99	155
2631.36	159
2631.72	141
2632.09	119
2632.45	155
2632.82	155
2633.18	137
2633.55	173
2633.91	147
2634.28	129
2634.64	161
2635.01	147
2635.37	181
2635.74	131
2636.1	171
2636.47	177
2636.83	187
2637.2	129
2637.56	205
2637.93	135
2638.29	149
2638.66	177
2639.02	151
2639.39	207
2639.75	125
2640.12	185
2640.48	155
2640.84	201
2641.21	157
2641.57	215
2641.94	137
2642.3	187
2642.67	189
2643.03	155
2643.4	217
2643.76	115
2644.13	203
2644.49	163
2644.85	193
2645.22	147
2645.58	195
2645.95	169
2646.31	189
2646.68	217
2647.04	175
2647.4	231
2647.77	135
2648.13	209
2648.5	197
2648.86	243
2649.22	201
2649.59	203
2649.95	175
2650.32	245
2650.68	217
2651.04	177
2651.41	269
2651.77	137
2652.14	243
2652.5	211
2652.86	213
2653.23	221
2653.59	205
2653.95	211
2654.32	231
2654.68	213
2655.05	197
2655.41	199
2655.77	185
2656.14	247
2656.5	225
2656.86	239
2657.23	245
2657.59	213
2657.95	241
2658.32	239
2658.68	199
2659.04	283
2659.41	227
2659.77	229
2660.13	243
2660.5	247
2660.86	233
2661.22	243
2661.59	225
2661.95	257
2662.31	287
2662.68	225
2663.04	271
2663.4	197
2663.76	261
2664.13	257
2664.49	253
2664.85	235
2665.22	247
2665.58	223
2665.94	253
2666.3	259
2666.67	213
2667.03	301
2667.39	199
2667.76	271
2668.12	241
2668.48	265
2668.84	249
2669.21	253
2669.57	229
2669.93	265
2670.29	275
2670.66	207
2671.02	293
2671.38	191
2671.74	311
2672.11	227
2672.47	271
2672.83	259
2673.19	221
2673.56	257
2673.92	235
2674.28	259
2674.64	183
2675	251
2675.37	171
2675.73	275
2676.09	197
2676.45	211
2676.81	233
2677.18	173
2677.54	245
2677.9	223
2678.26	259
2678.62	169
2678.99	229
2679.35	201
2679.71	255
2680.07	217
2680.43	215
2680.8	245
2681.16	181
2681.52	223
2681.88	211
2682.24	227
2682.6	177
2682.97	199
2683.33	175
2683.69	201
2684.05	205
2684.41	205
2684.77	207
2685.13	185
2685.5	181
2685.86	185
2686.22	183
2686.58	197
2686.94	171
2687.3	207
2687.66	187
2688.03	167
2688.39	163
2688.75	195
2689.11	167
2689.47	203
2689.83	201
2690.19	177
2690.55	191
2690.91	145
2691.28	177
2691.64	175
2692	157
2692.36	189
2692.72	151
2693.08	163
2693.44	155
2693.8	199
2694.16	125
2694.52	219
2694.88	117
2695.24	173
2695.61	173
2695.97	107
2696.33	169
2696.69	103
2697.05	177
2697.41	127
2697.77	193
2698.13	131
2698.49	173
2698.85	119
2699.21	177
2699.57	161
2699.93	135
2700.29	187
2700.65	109
2701.01	173
2701.37	159
2701.73	163
2702.09	137
2702.45	161
2702.81	109
2703.18	169
2703.53	141
2703.89	115
2704.25	181
2704.62	91
2704.98	153
2705.33	125
2705.69	155
2706.06	123
2706.42	151
2706.78	105
2707.13	153
2707.49	147
2707.85	113
2708.22	163
2708.57	91
2708.93	151
2709.29	115
2709.65	145
2710.01	139
2710.37	131
2710.73	117
2711.09	147
2711.45	131
2711.81	135
2712.17	179
2712.53	103
2712.89	165
2713.25	129
2713.61	125
2713.97	149
2714.33	121
2714.69	109
2715.05	147
2715.41	129
2715.76	141
2716.12	131
2716.48	123
2716.84	145
2717.2	141
2717.56	123
2717.92	175
2718.28	97
2718.64	101
2719	175
2719.35	127
2719.71	173
2720.07	77
2720.43	147
2720.79	113
2721.15	129
2721.51	107
2721.87	139
2722.23	129
2722.59	111
2722.94	151
2723.3	81
2723.66	183
2724.02	89
2724.38	163
2724.74	111
2725.1	135
2725.46	123
2725.81	125
2726.17	103
2726.53	101
2726.89	131
2727.25	101
2727.61	163
2727.96	67
2728.32	147
2728.68	107
2729.04	133
2729.4	123
2729.75	105
2730.11	97
2730.47	119
2730.83	137
2731.19	103
2731.55	175
2731.91	69
2732.26	159
2732.62	101
2732.98	121
2733.34	127
2733.69	125
2734.05	123
2734.41	113
2734.77	137
2735.13	117
2735.48	143
2735.84	63
2736.2	149
2736.56	131
2736.91	133
2737.27	159
2737.63	111
2737.99	145
2738.35	129
2738.7	129
2739.06	127
2739.42	105
2739.78	105
2740.13	153
2740.49	127
2740.85	135
2741.21	121
2741.56	111
2741.92	115
2742.28	133
2742.64	93
2742.99	159
2743.35	93
2743.71	111
2744.06	129
2744.42	129
2744.78	111
2745.14	105
2745.49	111
2745.85	131
2746.21	151
2746.57	107
2746.92	163
2747.28	71
2747.64	127
2747.99	121
2748.35	117
2748.71	135
2749.06	103
2749.42	153
2749.78	125
2750.13	143
2750.49	93
2750.85	171
2751.2	89
2751.56	147
2751.92	105
2752.27	121
2752.63	147
2752.99	81
2753.34	129
2753.7	99
2754.06	171
2754.41	77
2754.77	159
2755.13	65
2755.48	133
2755.84	111
2756.2	117
2756.55	149
2756.91	49
2757.26	161
2757.62	101
2757.98	163
2758.33	103
2758.69	149
2759.04	113
2759.4	149
2759.76	129
2760.11	95
2760.47	149
2760.83	71
2761.18	149
2761.54	107
2761.89	125
2762.25	95
2762.61	123
2762.96	113
2763.32	133
2763.67	115
2764.03	131
2764.38	129
2764.74	81
2765.1	143
2765.45	121
2765.81	125
2766.16	115
2766.52	103
2766.88	129
2767.23	153
2767.59	97
2767.94	131
2768.3	113
2768.65	101
2769.01	139
2769.36	141
2769.72	121
2770.07	113
2770.43	83
2770.78	139
2771.14	147
2771.49	107
2771.85	145
2772.21	101
2772.56	113
2772.92	119
2773.27	121
2773.63	97
2773.98	125
2774.34	87
2774.69	123
2775.05	123
2775.4	87
2775.76	187
2776.11	89
2776.47	139
2776.82	103
2777.18	139
2777.53	121
2777.89	137
2778.24	113
2778.59	141
2778.95	147
2779.3	75
2779.66	179
2780.01	59
2780.37	167
2780.72	109
2781.08	137
2781.43	129
2781.79	95
2782.14	119
2782.49	125
2782.85	179
2783.2	63
2783.56	157
2783.91	85
2784.27	149
2784.62	103
2784.98	109
2785.33	123
2785.68	85
2786.04	119
2786.39	109
2786.75	129
2787.1	75
2787.46	147
2787.81	85
2788.16	177
2788.52	115
2788.87	139
2789.22	141
2789.58	115
2789.93	131
2790.29	131
2790.64	135
2790.99	105
2791.35	139
2791.7	97
2792.06	129
2792.41	97
2792.76	133
2793.12	133
2793.47	91
2793.82	127
2794.18	131
2794.53	113
2794.88	135
2795.24	103
2795.59	123
2795.95	139
2796.3	91
2796.65	101
2797.01	139
2797.36	101
2797.71	107
2798.07	143
2798.42	97
2798.77	165
2799.13	93
2799.48	139
2799.83	135
2800.19	99
2800.54	121
2800.89	125
2801.24	123
2801.6	93
2801.95	153
2802.3	91
2802.66	155
2803.01	77
2803.36	143
2803.72	121
2804.07	111
2804.42	131
2804.77	93
2805.13	129
2805.48	111
2805.83	125
2806.19	93
2806.54	141
2806.89	71
2807.24	141
2807.6	103
2807.95	95
2808.3	151
2808.65	79
2809.01	153
2809.36	85
2809.71	139
2810.06	111
2810.42	121
2810.77	73
2811.12	139
2811.47	115
2811.83	107
2812.18	155
2812.53	85
2812.88	153
2813.24	91
2813.59	141
2813.94	105
2814.29	123
2814.64	91
2815	133
2815.35	113
2815.7	101
2816.05	131
2816.4	69
2816.76	131
2817.11	93
2817.46	131
2817.81	121
2818.16	101
2818.52	91
2818.87	121
2819.22	119
2819.57	99
2819.92	113
2820.28	115
2820.63	117
2820.98	113
2821.33	109
2821.68	141
2822.03	99
2822.39	97
2822.74	131
2823.09	107
2823.44	137
2823.79	91
2824.14	115
2824.49	103
2824.85	129
2825.2	117
2825.55	147
2825.9	109
2826.25	95
2826.6	133
2826.95	99
2827.31	163
2827.66	73
2828.01	143
2828.36	117
2828.71	137
2829.06	95
2829.41	141
2829.76	99
2830.11	113
2830.46	143
2830.82	103
2831.17	147
2831.52	59
2831.87	147
2832.22	113
2832.57	133
2832.92	119
2833.27	117
2833.62	99
2833.97	105
2834.32	131
2834.68	95
2835.03	165
2835.38	51
2835.73	157
2836.08	107
2836.43	125
2836.78	107
2837.13	101
2837.48	109
2837.83	111
2838.18	135
2838.53	87
2838.88	151
2839.23	61
2839.58	143
2839.93	107
2840.28	117
2840.63	137
2840.98	97
2841.33	127
2841.68	111
2842.03	127
2842.38	105
2842.73	127
2843.08	69
2843.43	171
2843.78	117
2844.13	103
2844.48	131
2844.83	99
2845.18	123
2845.53	113
2845.88	117
2846.23	129
2846.58	119
2846.93	73
2847.28	143
2847.63	97
2847.98	111
2848.33	109
2848.68	85
2849.03	121
2849.38	123
2849.73	117
2850.08	149
2850.43	83
2850.78	95
2851.13	135
2851.48	115
2851.83	129
2852.18	125
2852.53	105
2852.88	129
2853.23	131
2853.57	97
2853.92	141
2854.27	71
2854.62	111
2854.97	111
2855.32	113
2855.67	119
2856.02	83
2856.37	129
2856.72	107
2857.07	133
2857.42	75
2857.76	167
2858.11	59
2858.46	139
2858.81	109
2859.16	109
2859.51	151
2859.86	71
2860.21	163
2860.56	123
2860.91	155
2861.25	73
2861.6	149
2861.95	81
2862.3	129
2862.65	125
2863	115
2863.35	175
2863.69	53
2864.04	127
2864.39	119
2864.74	121
2865.09	79
2865.44	129
2865.78	89
2866.13	139
2866.48	113
2866.83	99
2867.18	131
2867.53	73
2867.88	137
2868.22	109
2868.57	131
2868.92	87
2869.27	129
2869.62	103
2869.96	139
2870.31	107
2870.66	107
2871.01	135
2871.36	71
2871.7	127
2872.05	103
2872.4	115
2872.75	111
2873.1	99
2873.44	109
2873.79	141
2874.14	97
2874.49	111
2874.84	115
2875.18	83
2875.53	123
2875.88	121
2876.23	107
2876.57	131
2876.92	81
2877.27	115
2877.62	123
2877.97	89
2878.31	119
2878.66	89
2879.01	117
2879.36	97
2879.7	131
2880.05	71
2880.4	141
2880.74	91
2881.09	133
2881.44	127
2881.79	81
2882.13	139
2882.48	83
2882.83	137
2883.18	87
2883.52	139
2883.87	91
2884.22	127
2884.56	105
2884.91	121
2885.26	141
2885.61	79
2885.95	145
2886.3	73
2886.65	145
2886.99	91
2887.34	137
2887.69	103
2888.03	119
2888.38	85
2888.73	135
2889.07	111
2889.42	75
2889.77	155
2890.11	71
2890.46	139
2890.81	75
2891.15	139
2891.5	117
2891.85	109
2892.19	79
2892.54	133
2892.89	117
2893.23	89
2893.58	153
2893.93	85
2894.27	143
2894.62	87
2894.96	135
2895.31	131
2895.66	87
2896	95
2896.35	120.89
2896.7	120.352
2897.04	108.702
2897.39	109.042
2897.73	95.3679
2898.08	115.089
2898.43	99.6842
2898.77	99.5209
2899.12	129.203
2899.46	81.0725
2899.81	95.1139
2900.16	133.789
2900.5	110.193
2900.85	131.793
2901.19	91.9414
2901.54	115.427
2901.88	121.663
2902.23	117.712
2902.58	118.247
2902.92	117.388
2903.27	103.325
2903.61	99.372
2903.96	127.812
2904.31	105.052
2904.65	139.623
2905	83.6592
2905.34	119.856
2905.69	105.761
2906.03	112.316
2906.38	103.885
2906.72	113.817
2907.07	110.602
2907.42	98.9073
2907.76	131.584
2908.11	90.9669
2908.45	149.522
2908.8	76.1459
2909.14	134.809
2909.49	109.79
2909.83	114.96
2910.18	116.445
2910.52	116.613
2910.87	113.385
2911.21	106.037
2911.56	135.149
2911.9	85.9697
2912.25	152.539
2912.59	69.467
2912.94	136.211
2913.28	104.78
2913.63	104.01
2913.97	128.157
2914.32	94.0159
2914.66	121.599
2915.01	102.061
2915.35	145.147
2915.7	101.845
2916.04	131.612
2916.39	77.0025
2916.73	135.341
2917.08	116.017
2917.42	102.707
2917.77	133.145
2918.11	100.595
2918.46	110.706
2918.8	104.132
2919.15	125.636
2919.49	119.208
2919.83	134.258
2920.18	97.3205
2920.52	123.036
2920.87	123.539
2921.21	104.825
2921.56	118.642
2921.9	99.8113
2922.24	101.561
2922.59	110.849
2922.93	111.558
2923.28	133.323
2923.62	123.543
2923.97	103.739
2924.31	114.278
2924.65	127.208
2925	107.916
2925.34	106.592
2925.69	115.433
2926.03	95.689
2926.38	113.702
2926.72	90.1306
2927.06	116.44
2927.41	117.814
2927.75	110.319
2928.09	121.877
2928.44	131.299
2928.78	111.782
2929.13	101.414
2929.47	121.46
2929.81	89.5733
2930.16	126.344
2930.5	98.0959
2930.79	115
2931.14	149
2931.49	103
2931.84	93
2932.19	127
2932.54	109
2932.88	129
2933.23	129
2933.58	113
2933.93	129
2934.28	101
2934.63	111
2934.97	129
2935.32	91
2935.67	95
2936.02	143
2936.37	107
2936.71	121
2937.06	93
2937.41	119
2937.76	119
2938.11	119
2938.46	95
2938.8	141
2939.15	85
2939.5	115
2939.85	129
2940.19	107
2940.54	163
2940.89	71
2941.24	145
2941.59	115
2941.93	135
2942.28	109
2942.63	151
2942.98	91
2943.32	101
2943.67	137
2944.02	87
2944.37	157
2944.72	49
2945.06	137
2945.41	131
2945.76	133
2946.11	95
2946.45	101
2946.8	107
2947.15	105
2947.49	141
2947.84	79
2948.19	153
2948.54	63
2948.88	173
2949.23	123
2949.58	131
2949.93	123
2950.27	107
2950.62	111
2950.97	95
2951.31	131
2951.66	113
2952.01	145
2952.35	53
2952.7	141
2953.05	119
2953.4	127
2953.74	129
2954.09	101
2954.44	109
2954.78	129
2955.13	133
2955.48	119
2955.82	115
2956.17	47
2956.52	141
2956.86	113
2957.21	117
2957.56	133
2957.9	81
2958.25	121
2958.6	121
2958.94	123
2959.29	135
2959.64	109
2959.98	87
2960.33	137
2960.68	131
2961.02	115
2961.37	119
2961.72	89
2962.06	133
2962.41	133
2962.76	91
2963.1	141
2963.45	77
2963.79	119
2964.14	117
2964.49	125
2964.83	105
2965.18	99
2965.52	93
2965.87	115
2966.22	137
2966.56	71
2966.91	165
2967.25	57
2967.6	129
2967.95	111
2968.29	131
2968.64	133
2968.98	95
2969.33	109
2969.68	123
2970.02	153
2970.37	67
2970.71	153
2971.06	71
2971.4	151
2971.75	121
2972.1	111
2972.44	115
2972.79	89
2973.13	123
2973.48	109
2973.82	125
2974.17	75
2974.51	155
2974.86	55
2975.21	147
2975.55	109
2975.9	111
2976.24	127
2976.59	81
2976.93	131
2977.28	117
2977.62	129
2977.97	125
2978.31	151
2978.66	81
2979	153
2979.35	103
2979.69	125
2980.04	141
2980.38	73
2980.73	141
2981.07	111
2981.42	107
2981.76	77
2982.11	125
2982.45	117
2982.8	137
2983.14	93
2983.49	109
2983.83	139
2984.18	83
2984.52	119
2984.87	115
2985.21	115
2985.56	95
2985.9	109
2986.25	117
2986.59	119
2986.94	111
2987.28	119
2987.62	137
2987.97	109
2988.31	115
2988.66	131
2989	115
2989.35	141
2989.69	81
2990.03	113
2990.38	133
2990.72	89
2991.07	125
2991.41	109
2991.76	113
2992.1	111
2992.44	129
2992.79	99
2993.13	123
2993.48	89
2993.82	127
2994.17	131
2994.51	73
2994.85	129
2995.2	87
2995.54	123
2995.89	105
2996.23	143
2996.57	103
2996.92	143
2997.26	93
2997.6	127
2997.95	117
2998.29	91
2998.64	163
2998.98	87
2999.32	137
2999.67	107
