#Acq. time (s)=	30
#Accumulations=	1
#Range (cm-¹)=	1050...3000 (30 s) 
#Windows=	6
#Auto scanning=	Off
#Autofocus=	Off
#AutoExposure=	Off
#Spike filter=	Off
#Delay time (s)=	0
#Binning=	1
#Readout mode=	Signal
#DeNoise=	Off
#ICS correction=	Off
#Dark correction=	Off
#Inst. Process=	Off
#Detector Gain=	High Sensitivity
#Detector ADC=	45 kHz       
#Detector temperature (°C)=	-60.1
#Instrument=	LabRAM
#Detector=	Syncerity
#Objective=	x50LWD
#Grating=	1800
#Filter=	25%
#Laser (nm)=	532
#Hole=	100
#E-Cal_Neon=	0
#StageXY=	Marzhauser
#StageZ=	Marzhauser
#X (µm)=	0
#Y (µm)=	0
#Z (µm)=	-1678.85
#Spectral res.(cm-¹)=	1.9
#Full time(mm:ss)=	3:09
#AC=	Not calibrated
#Project=	
#Sample=	
#Site=	
#Title=	Spot 1 400K reverse
#Remark=	
#Date=	19.02.2026 13:00
#Acquired=	19.02.2026 13:00:57
#Edit:Spike=	19.02.2026 13:07:11
#AxisType[0]=Intens
#AxisUnit[0]=Cnt
#AxisType[1]=Spectr
#AxisUnit[1]=1/cm
1050.13	107
1050.59	153
1051.05	133
1051.51	149
1051.97	117
1052.44	147
1052.9	143
1053.36	129
1053.82	171
1054.28	99
1054.74	161
1055.2	127
1055.67	133
1056.13	173
1056.59	99
1057.05	111
1057.51	139
1057.97	131
1058.43	147
1058.89	117
1059.36	103
1059.82	171
1060.28	113
1060.74	115
1061.2	139
1061.66	113
1062.12	139
1062.58	177
1063.04	123
1063.5	175
1063.96	97
1064.43	155
1064.89	145
1065.35	137
1065.81	165
1066.27	149
1066.73	125
1067.19	115
1067.65	137
1068.11	105
1068.57	201
1069.03	73
1069.49	151
1069.95	113
1070.41	135
1070.87	135
1071.33	123
1071.79	155
1072.25	103
1072.71	159
1073.17	107
1073.63	171
1074.09	77
1074.55	151
1075.01	115
1075.47	135
1075.93	145
1076.39	99
1076.85	137
1077.31	153
1077.77	131
1078.23	153
1078.69	123
1079.15	103
1079.61	155
1080.07	145
1080.53	131
1080.99	137
1081.45	133
1081.91	131
1082.37	153
1082.83	109
1083.29	173
1083.75	87
1084.21	147
1084.66	135
1085.12	135
1085.58	147
1086.04	101
1086.5	129
1086.96	135
1087.42	143
1087.88	87
1088.34	179
1088.8	75
1089.25	149
1089.71	141
1090.17	149
1090.63	157
1091.09	95
1091.55	165
1092.01	117
1092.47	155
1092.92	101
1093.38	173
1093.84	89
1094.3	181
1094.76	129
1095.22	143
1095.68	141
1096.13	101
1096.59	161
1097.05	137
1097.51	145
1097.97	117
1098.43	113
1098.88	159
1099.34	155
1099.8	109
1100.26	133
1100.72	149
1101.17	117
1101.63	145
1102.09	137
1102.55	131
1103.01	161
1103.46	117
1103.92	145
1104.38	137
1104.84	97
1105.29	165
1105.75	129
1106.21	157
1106.67	119
1107.12	167
1107.58	113
1108.04	173
1108.5	115
1108.95	145
1109.41	145
1109.87	85
1110.33	175
1110.78	73
1111.24	171
1111.7	113
1112.16	155
1112.61	131
1113.07	139
1113.53	111
1113.98	143
1114.44	133
1114.9	107
1115.35	167
1115.81	101
1116.27	173
1116.72	91
1117.18	149
1117.64	147
1118.1	127
1118.55	127
1119.01	141
1119.47	145
1119.92	129
1120.38	153
1120.84	107
1121.29	181
1121.75	115
1122.2	137
1122.66	159
1123.12	115
1123.57	131
1124.03	133
1124.49	135
1124.94	149
1125.4	125
1125.86	143
1126.31	151
1126.77	137
1127.22	141
1127.68	149
1128.14	109
1128.59	125
1129.05	167
1129.5	111
1129.96	177
1130.41	73
1130.87	171
1131.33	137
1131.78	133
1132.24	155
1132.69	107
1133.15	137
1133.61	107
1134.06	181
1134.52	101
1134.97	179
1135.43	79
1135.88	183
1136.34	133
1136.79	131
1137.25	159
1137.7	111
1138.16	159
1138.61	115
1139.07	157
1139.52	121
1139.98	161
1140.43	93
1140.89	163
1141.34	129
1141.8	117
1142.25	171
1142.71	111
1143.16	149
1143.62	115
1144.07	139
1144.53	155
1144.98	133
1145.44	95
1145.89	167
1146.35	135
1146.8	129
1147.26	145
1147.71	115
1148.16	149
1148.62	133
1149.07	143
1149.53	161
1149.98	109
1150.44	111
1150.89	145
1151.35	127
1151.8	151
1152.25	111
1152.71	135
1153.16	113
1153.62	139
1154.07	131
1154.52	185
1154.98	105
1155.43	127
1155.89	135
1156.34	117
1156.79	187
1157.25	99
1157.7	181
1158.16	121
1158.61	151
1159.06	111
1159.52	129
1159.97	97
1160.42	143
1160.88	147
1161.33	105
1161.78	169
1162.24	63
1162.69	175
1163.14	123
1163.6	143
1164.05	145
1164.5	119
1164.96	135
1165.41	169
1165.86	151
1166.32	137
1166.77	139
1167.22	97
1167.68	169
1168.13	141
1168.58	129
1169.04	147
1169.49	107
1169.94	139
1170.39	175
1170.85	139
1171.3	147
1171.75	127
1172.2	133
1172.66	135
1173.11	139
1173.56	135
1174.01	113
1174.47	127
1174.92	139
1175.37	155
1175.82	103
1176.28	157
1176.73	87
1177.18	141
1177.63	125
1178.09	163
1178.54	169
1178.99	119
1179.44	141
1179.89	157
1180.35	159
1180.8	85
1181.25	179
1181.7	81
1182.15	179
1182.61	121
1183.06	151
1183.51	137
1183.96	87
1184.41	161
1184.87	129
1185.32	183
1185.77	95
1186.22	143
1186.67	115
1187.12	153
1187.58	111
1188.03	135
1188.48	159
1188.93	97
1189.38	133
1189.83	133
1190.28	121
1190.73	159
1191.19	111
1191.64	123
1192.09	135
1192.54	117
1192.99	161
1193.44	145
1193.89	129
1194.34	111
1194.8	165
1195.25	103
1195.7	153
1196.15	117
1196.6	135
1197.05	149
1197.5	99
1197.95	177
1198.4	115
1198.85	175
1199.3	111
1199.75	163
1200.2	105
1200.66	173
1201.11	97
1201.56	145
1202.01	119
1202.46	105
1202.91	161
1203.36	85
1203.81	145
1204.26	105
1204.71	149
1205.16	127
1205.61	153
1206.06	101
1206.51	149
1206.96	121
1207.41	103
1207.86	163
1208.31	91
1208.76	167
1209.21	97
1209.66	139
1210.11	161
1210.56	127
1211.01	109
1211.46	143
1211.91	141
1212.36	143
1212.81	153
1213.26	105
1213.71	149
1214.16	151
1214.61	127
1215.05	159
1215.51	111
1215.95	141
1216.4	155
1216.85	129
1217.3	161
1217.75	91
1218.2	151
1218.65	129
1219.1	131
1219.55	121
1220	165
1220.45	127
1220.9	133
1221.34	149
1221.79	123
1222.24	177
1222.69	77
1223.14	169
1223.59	143
1224.04	131
1224.49	141
1224.94	147
1225.38	139
1225.83	117
1226.28	151
1226.73	115
1227.18	183
1227.63	91
1228.07	159
1228.52	127
1228.97	131
1229.42	155
1229.87	111
1230.32	157
1230.76	145
1231.21	149
1231.66	125
1232.11	149
1232.56	103
1233.01	165
1233.45	127
1233.9	141
1234.35	151
1234.8	121
1235.25	155
1235.69	159
1236.14	149
1236.59	159
1237.04	119
1237.49	105
1237.93	133
1238.38	157
1238.83	141
1239.28	121
1239.72	155
1240.17	131
1240.62	149
1241.07	111
1241.51	177
1241.96	93
1242.41	139
1242.86	133
1243.3	151
1243.75	157
1244.2	115
1244.65	155
1245.09	125
1245.54	163
1245.99	115
1246.44	157
1246.88	99
1247.33	141
1247.78	153
1248.22	135
1248.67	185
1249.12	61
1249.56	171
1250.01	127
1250.46	161
1250.9	121
1251.35	141
1251.8	125
1252.24	155
1252.69	131
1253.14	145
1253.58	169
1254.03	89
1254.48	159
1254.92	133
1255.37	139
1255.82	131
1256.26	127
1256.71	151
1257.15	171
1257.6	123
1258.05	143
1258.49	123
1258.94	119
1259.39	147
1259.83	147
1260.28	155
1260.72	147
1261.17	115
1261.62	137
1262.06	147
1262.51	115
1262.95	155
1263.4	99
1263.85	141
1264.29	137
1264.74	143
1265.18	151
1265.63	135
1266.07	141
1266.52	139
1266.97	165
1267.41	107
1267.86	197
1268.3	83
1268.75	195
1269.19	125
1269.64	159
1270.08	143
1270.53	115
1270.97	137
1271.42	137
1271.86	147
1272.31	99
1272.76	185
1273.2	93
1273.64	175
1274.09	117
1274.53	131
1274.98	157
1275.42	111
1275.87	147
1276.31	131
1276.76	133
1277.2	143
1277.65	139
1278.09	119
1278.54	143
1278.98	115
1279.43	145
1279.87	163
1280.32	115
1280.76	157
1281.21	161
1281.65	135
1282.09	163
1282.54	115
1282.98	155
1283.43	169
1283.87	115
1284.32	153
1284.76	109
1285.21	155
1285.65	125
1286.09	163
1286.54	105
1286.98	191
1287.42	121
1287.87	159
1288.31	139
1288.76	123
1289.2	169
1289.64	103
1290.09	153
1290.53	121
1290.98	169
1291.42	117
1291.86	183
1292.31	123
1292.75	169
1293.19	139
1293.64	131
1294.08	183
1294.53	101
1294.97	165
1295.41	115
1295.85	169
1296.3	145
1296.74	145
1297.19	133
1297.63	151
1298.07	151
1298.51	135
1298.96	171
1299.4	113
1299.84	161
1300.29	133
1300.73	133
1301.17	161
1301.62	115
1302.06	119
1302.5	147
1302.94	125
1303.39	167
1303.83	97
1304.27	159
1304.72	121
1305.16	145
1305.6	123
1306.04	173
1306.49	123
1306.93	141
1307.37	171
1307.81	123
1308.26	175
1308.7	69
1309.14	175
1309.58	135
1310.03	165
1310.47	131
1310.91	139
1311.35	137
1311.8	153
1312.24	161
1312.68	115
1313.12	175
1313.56	95
1314	189
1314.45	139
1314.89	167
1315.33	147
1315.77	105
1316.22	139
1316.66	135
1317.1	147
1317.54	149
1317.98	183
1318.43	111
1318.87	193
1319.31	135
1319.75	149
1320.19	151
1320.63	117
1321.07	157
1321.51	153
1321.96	133
1322.4	161
1322.84	117
1323.28	125
1323.72	167
1324.16	171
1324.6	147
1325.05	143
1325.49	131
1325.93	155
1326.37	185
1326.81	147
1327.25	211
1327.69	111
1328.13	167
1328.57	157
1329.02	157
1329.45	187
1329.9	121
1330.34	167
1330.78	179
1331.22	193
1331.66	119
1332.1	197
1332.54	129
1332.98	201
1333.42	185
1333.86	151
1334.3	209
1334.74	85
1335.18	179
1335.62	159
1336.07	175
1336.5	159
1336.95	187
1337.39	141
1337.83	193
1338.27	175
1338.71	171
1339.15	195
1339.59	121
1340.03	197
1340.47	155
1340.91	173
1341.35	159
1341.79	163
1342.23	165
1342.67	177
1343.11	155
1343.55	159
1343.99	177
1344.43	137
1344.86	193
1345.31	173
1345.74	177
1346.18	191
1346.62	133
1347.06	183
1347.5	203
1347.94	149
1348.38	203
1348.82	167
1349.26	153
1349.7	171
1350.14	199
1350.58	151
1351.02	159
1351.46	137
1351.9	177
1352.33	175
1352.77	131
1353.21	197
1353.65	99
1354.09	191
1354.53	149
1354.97	165
1355.41	149
1355.85	133
1356.29	185
1356.72	151
1357.16	181
1357.6	89
1358.04	193
1358.48	103
1358.92	215
1359.36	129
1359.79	149
1360.23	163
1360.67	129
1361.11	163
1361.55	143
1361.99	157
1362.43	125
1362.87	179
1363.3	139
1363.74	167
1364.18	143
1364.62	161
1365.06	163
1365.49	127
1365.93	149
1366.37	183
1366.81	145
1367.25	173
1367.68	139
1368.12	145
1368.56	171
1369	147
1369.44	181
1369.87	163
1370.31	147
1370.75	149
1371.19	161
1371.62	137
1372.06	177
1372.5	89
1372.94	159
1373.37	149
1373.81	137
1374.25	151
1374.69	119
1375.12	153
1375.56	121
1376	181
1376.44	97
1376.87	187
1377.31	119
1377.75	197
1378.19	145
1378.62	133
1379.06	183
1379.5	107
1379.93	175
1380.37	97
1380.81	171
1381.25	137
1381.68	157
1382.12	103
1382.56	161
1382.99	153
1383.43	119
1383.87	193
1384.3	119
1384.74	165
1385.18	131
1385.61	143
1386.05	131
1386.49	125
1386.92	117
1387.36	153
1387.8	139
1388.23	147
1388.67	123
1389.1	135
1389.54	149
1389.98	137
1390.41	129
1390.85	161
1391.29	117
1391.72	133
1392.16	159
1392.59	137
1393.03	189
1393.47	97
1393.9	157
1394.34	131
1394.77	163
1395.21	139
1395.65	187
1396.08	131
1396.52	143
1396.95	171
1397.39	127
1397.82	193
1398.26	75
1398.7	177
1399.13	129
1399.57	173
1400	149
1400.44	133
1400.87	129
1401.31	123
1401.74	153
1402.18	145
1402.62	191
1403.05	77
1403.49	173
1403.92	127
1404.36	159
1404.79	157
1405.23	123
1405.66	157
1406.1	135
1406.53	163
1406.97	137
1407.4	175
1407.84	93
1408.27	169
1408.71	147
1409.14	125
1409.58	155
1410.01	111
1410.45	147
1410.88	151
1411.31	147
1411.75	167
1412.18	119
1412.62	127
1413.05	157
1413.49	141
1413.92	167
1414.36	143
1414.79	127
1415.23	139
1415.66	165
1416.1	137
1416.53	173
1416.96	89
1417.4	147
1417.83	149
1418.27	139
1418.7	171
1419.13	89
1419.57	159
1420	157
1420.44	171
1420.87	113
1421.3	173
1421.74	87
1422.17	165
1422.61	149
1423.04	117
1423.47	175
1423.91	69
1424.34	157
1424.77	143
1425.21	151
1425.64	121
1426.07	157
1426.51	111
1426.94	151
1427.38	139
1427.81	113
1428.24	161
1428.68	87
1429.11	177
1429.54	125
1429.98	157
1430.41	117
1430.84	137
1431.28	143
1431.71	165
1432.14	137
1432.57	151
1433.01	133
1433.44	133
1433.87	161
1434.31	163
1434.74	137
1435.17	131
1435.61	103
1436.04	137
1436.47	149
1436.9	123
1437.34	155
1437.77	123
1438.2	167
1438.63	141
1439.07	165
1439.5	115
1439.93	165
1440.36	133
1440.8	157
1441.23	133
1441.66	77
1442.09	199
1442.53	83
1442.96	161
1443.39	127
1443.82	135
1444.26	139
1444.69	137
1445.12	123
1445.55	159
1445.98	143
1446.42	91
1446.85	175
1447.28	89
1447.71	177
1448.14	99
1448.57	147
1449.01	163
1449.44	123
1449.87	147
1450.3	149
1450.73	131
1451.17	143
1451.6	149
1452.03	123
1452.46	173
1452.89	131
1453.32	137
1453.76	163
1454.19	121
1454.62	149
1455.05	155
1455.48	117
1455.91	135
1456.34	95
1456.77	145
1457.21	117
1457.64	117
1458.07	125
1458.5	147.01
1458.93	146.643
1459.36	125.344
1459.79	147.082
1460.22	116.028
1460.65	187.081
1461.08	94.545
1461.52	171.693
1461.95	119.693
1462.38	123.252
1462.81	131.978
1463.24	110.46
1463.67	143.393
1464.1	102.465
1464.53	157.918
1464.96	100.09
1465.39	168.674
1465.82	79.7884
1466.25	162.977
1466.68	138.329
1467.11	148.599
1467.54	149.844
1467.98	106.248
1468.41	138.207
1468.84	111.788
1469.27	156.319
1469.7	143.595
1470.13	140.53
1470.56	110.771
1470.99	142.304
1471.42	129.628
1471.85	147.803
1472.28	148.981
1472.71	115
1473.14	143.313
1473.57	144.961
1474	134.157
1474.43	136.459
1474.86	129.3
1475.29	114.408
1475.72	162.874
1476.15	132.449
1476.58	150.374
1477.01	126.506
1477.44	139.283
1477.87	145.356
1478.3	158.695
1478.72	137.715
1479.15	128.621
1479.58	127.994
1480.01	114.464
1480.44	144.493
1480.87	120.875
1481.3	160.51
1481.73	119.834
1482.16	147.831
1482.59	126.34
1483.02	155.875
1483.45	123.613
1483.88	133.173
1484.31	122.298
1484.74	126.982
1485.17	155.246
1485.59	112.253
1486.02	149.541
1486.45	117.556
1486.88	149.048
1487.31	137.764
1487.74	143.23
1488.17	126.804
1488.6	135.286
1489.02	138.678
1489.45	143.005
1489.88	145.443
1490.31	130.197
1490.74	145.555
1491.17	138.741
1491.6	125.557
1492.03	115.225
1492.45	148.984
1492.88	139.657
1493.31	155.196
1493.74	136.639
1494.17	143.105
1494.6	145.453
1495.02	138.254
1495.45	139.252
1495.88	132.95
1496.31	134.681
1496.74	132.044
1497.17	139.168
1497.59	138.399
1498.02	155.476
1498.45	139.826
1498.88	130.993
1499.31	152.782
1499.73	137.265
1500.16	146.192
1500.59	149.167
1501.02	135.238
1501.45	126.021
1501.87	127.101
1502.13	161
1502.56	123
1502.99	175
1503.43	87
1503.86	153
1504.29	171
1504.72	139
1505.16	143
1505.59	97
1506.02	147
1506.46	119
1506.89	147
1507.32	125
1507.75	157
1508.19	89
1508.62	173
1509.05	145
1509.49	137
1509.92	149
1510.35	115
1510.78	153
1511.21	131
1511.65	141
1512.08	149
1512.51	141
1512.94	135
1513.38	181
1513.81	149
1514.24	131
1514.67	151
1515.11	121
1515.54	137
1515.97	163
1516.4	133
1516.83	181
1517.27	101
1517.7	151
1518.13	131
1518.56	139
1518.99	155
1519.42	111
1519.86	147
1520.29	121
1520.72	165
1521.15	101
1521.58	191
1522.01	105
1522.45	131
1522.88	153
1523.31	141
1523.74	185
1524.17	79
1524.6	175
1525.04	125
1525.47	167
1525.9	119
1526.33	147
1526.76	109
1527.19	163
1527.62	141
1528.05	137
1528.49	159
1528.92	87
1529.35	177
1529.78	145
1530.21	155
1530.64	139
1531.07	149
1531.5	149
1531.93	191
1532.37	151
1532.8	135
1533.23	159
1533.66	95
1534.09	173
1534.52	141
1534.95	169
1535.38	141
1535.81	135
1536.24	151
1536.67	155
1537.1	141
1537.53	151
1537.96	131
1538.39	121
1538.82	171
1539.26	169
1539.68	131
1540.12	163
1540.55	131
1540.98	139
1541.41	143
1541.84	111
1542.27	183
1542.7	117
1543.13	175
1543.56	153
1543.99	159
1544.42	131
1544.85	125
1545.28	127
1545.71	161
1546.14	183
1546.57	89
1547	213
1547.43	103
1547.86	169
1548.29	163
1548.72	143
1549.14	157
1549.57	131
1550.01	165
1550.43	145
1550.86	147
1551.29	121
1551.72	181
1552.15	117
1552.58	185
1553.01	111
1553.44	145
1553.87	177
1554.3	147
1554.73	153
1555.16	167
1555.59	169
1556.01	147
1556.44	183
1556.87	131
1557.3	189
1557.73	137
1558.16	145
1558.59	163
1559.02	145
1559.45	163
1559.88	159
1560.3	175
1560.73	173
1561.16	157
1561.59	157
1562.02	179
1562.45	139
1562.88	155
1563.31	173
1563.73	153
1564.16	145
1564.59	177
1565.02	143
1565.45	225
1565.88	121
1566.3	207
1566.73	177
1567.16	167
1567.59	177
1568.02	159
1568.45	173
1568.88	167
1569.3	201
1569.73	155
1570.16	259
1570.59	131
1571.01	203
1571.44	179
1571.87	199
1572.3	209
1572.73	181
1573.15	217
1573.58	175
1574.01	211
1574.44	173
1574.87	223
1575.29	143
1575.72	239
1576.15	179
1576.58	199
1577	227
1577.43	187
1577.86	213
1578.29	197
1578.71	205
1579.14	201
1579.57	231
1580	221
1580.42	241
1580.85	231
1581.28	237
1581.71	261
1582.13	255
1582.56	265
1582.99	267
1583.41	267
1583.84	323
1584.27	275
1584.7	301
1585.12	329
1585.55	301
1585.98	367
1586.4	321
1586.83	341
1587.26	349
1587.68	369
1588.11	321
1588.54	423
1588.96	339
1589.39	435
1589.82	413
1590.24	451
1590.67	483
1591.1	363
1591.52	437
1591.95	439
1592.38	481
1592.8	383
1593.23	495
1593.65	407
1594.08	491
1594.51	455
1594.93	453
1595.36	457
1595.79	403
1596.21	429
1596.64	403
1597.06	449
1597.49	357
1597.92	397
1598.34	341
1598.77	365
1599.19	311
1599.62	331
1600.05	325
1600.47	255
1600.9	327
1601.32	273
1601.75	303
1602.18	239
1602.6	233
1603.03	245
1603.45	259
1603.88	205
1604.3	219
1604.73	201
1605.15	161
1605.58	199
1606	211
1606.43	197
1606.86	185
1607.28	163
1607.71	197
1608.13	215
1608.56	167
1608.98	205
1609.41	157
1609.83	191
1610.26	185
1610.68	193
1611.11	127
1611.53	209
1611.96	131
1612.38	197
1612.81	189
1613.23	129
1613.66	209
1614.08	111
1614.51	189
1614.93	157
1615.36	169
1615.78	147
1616.21	177
1616.63	157
1617.06	169
1617.48	175
1617.9	111
1618.33	203
1618.75	125
1619.18	207
1619.6	141
1620.03	177
1620.45	167
1620.88	147
1621.3	163
1621.72	159
1622.15	179
1622.57	127
1623	177
1623.42	103
1623.85	173
1624.27	135
1624.69	147
1625.12	185
1625.54	133
1625.97	139
1626.39	165
1626.81	149
1627.24	143
1627.66	151
1628.08	125
1628.51	177
1628.93	139
1629.36	139
1629.78	181
1630.2	127
1630.63	135
1631.05	145
1631.47	135
1631.9	175
1632.32	93
1632.74	141
1633.17	159
1633.59	159
1634.01	157
1634.44	151
1634.86	131
1635.28	119
1635.71	159
1636.13	113
1636.55	185
1636.98	111
1637.4	193
1637.82	139
1638.25	129
1638.67	153
1639.09	99
1639.51	167
1639.94	103
1640.36	159
1640.78	109
1641.21	191
1641.63	83
1642.05	159
1642.47	127
1642.9	133
1643.32	161
1643.74	105
1644.17	147
1644.59	125
1645.01	155
1645.43	131
1645.86	153
1646.28	83
1646.7	155
1647.12	149
1647.55	131
1647.97	171
1648.39	115
1648.81	133
1649.23	123
1649.66	133
1650.08	151
1650.5	141
1650.92	97
1651.35	157
1651.77	141
1652.19	125
1652.61	139
1653.03	125
1653.45	137
1653.88	141
1654.3	117
1654.72	173
1655.14	95
1655.56	139
1655.99	143
1656.41	131
1656.83	147
1657.25	105
1657.67	125
1658.09	121
1658.52	139
1658.94	85
1659.36	171
1659.78	83
1660.2	155
1660.62	133
1661.04	139
1661.47	143
1661.89	87
1662.31	149
1662.73	121
1663.15	167
1663.57	89
1663.99	159
1664.41	91
1664.83	173
1665.26	121
1665.68	123
1666.1	149
1666.52	103
1666.94	155
1667.36	141
1667.78	129
1668.2	97
1668.62	123
1669.04	103
1669.46	129
1669.89	129
1670.31	127
1670.73	141
1671.15	123
1671.57	145
1671.99	141
1672.41	125
1672.83	127
1673.25	119
1673.67	127
1674.09	151
1674.51	113
1674.93	143
1675.35	125
1675.77	115
1676.19	149
1676.61	141
1677.03	109
1677.45	149
1677.87	91
1678.29	135
1678.71	143
1679.13	103
1679.55	165
1679.97	109
1680.39	143
1680.81	107
1681.23	145
1681.65	99
1682.07	165
1682.49	85
1682.91	141
1683.33	139
1683.75	91
1684.17	161
1684.59	77
1685.01	171
1685.43	91
1685.85	163
1686.27	113
1686.69	155
1687.11	121
1687.53	141
1687.95	137
1688.37	101
1688.78	155
1689.2	89
1689.62	153
1690.04	113
1690.46	153
1690.88	147
1691.3	97
1691.72	123
1692.14	145
1692.56	123
1692.98	133
1693.39	141
1693.81	107
1694.23	137
1694.65	111
1695.07	121
1695.49	147
1695.91	89
1696.33	105
1696.75	137
1697.16	107
1697.58	141
1698	101
1698.42	123
1698.84	139
1699.26	113
1699.68	107
1700.09	133
1700.51	99
1700.93	113
1701.35	135
1701.77	115
1702.19	167
1702.6	65
1703.02	151
1703.44	109
1703.86	141
1704.28	109
1704.69	129
1705.11	111
1705.53	99
1705.95	133
1706.37	89
1706.78	179
1707.2	49
1707.62	165
1708.04	97
1708.46	123
1708.87	145
1709.29	101
1709.71	131
1710.13	107
1710.54	159
1710.96	99
1711.38	153
1711.8	63
1712.22	155
1712.63	125
1713.05	145
1713.47	153
1713.89	119
1714.3	173
1714.72	117
1715.14	127
1715.56	123
1715.97	127
1716.39	89
1716.81	133
1717.22	133
1717.64	123
1718.06	131
1718.48	111
1718.89	123
1719.31	135
1719.73	115
1720.14	141
1720.56	103
1720.98	133
1721.39	151
1721.81	129
1722.23	123
1722.64	107
1723.06	123
1723.48	131
1723.89	145
1724.31	83
1724.73	149
1725.14	73
1725.56	121
1725.98	129
1726.39	129
1726.81	149
1727.23	75
1727.64	125
1728.06	127
1728.48	143
1728.89	91
1729.31	163
1729.72	69
1730.14	157
1730.56	131
1730.97	137
1731.39	157
1731.8	65
1732.22	153
1732.64	123
1733.05	161
1733.47	77
1733.89	141
1734.3	87
1734.72	149
1735.13	139
1735.55	109
1735.96	153
1736.38	85
1736.8	153
1737.21	113
1737.63	123
1738.04	113
1738.46	121
1738.87	117
1739.29	145
1739.71	111
1740.12	121
1740.54	149
1740.95	103
1741.37	135
1741.78	133
1742.2	103
1742.61	121
1743.03	99
1743.44	133
1743.86	143
1744.27	103
1744.69	153
1745.1	95
1745.52	153
1745.93	121
1746.35	141
1746.77	97
1747.18	125
1747.59	87
1748.01	151
1748.42	147
1748.84	95
1749.25	147
1749.67	93
1750.08	143
1750.5	103
1750.91	137
1751.33	103
1751.74	135
1752.16	95
1752.57	141
1752.99	133
1753.4	81
1753.81	181
1754.23	83
1754.64	161
1755.06	95
1755.47	153
1755.89	117
1756.3	127
1756.72	109
1757.13	143
1757.54	131
1757.96	95
1758.37	173
1758.78	81
1759.2	169
1759.61	91
1760.03	129
1760.44	141
1760.86	113
1761.27	99
1761.68	153
1762.1	111
1762.51	115
1762.92	129
1763.34	95
1763.75	141
1764.17	113
1764.58	121
1764.99	153
1765.41	99
1765.82	121
1766.23	151
1766.65	113
1767.06	171
1767.47	91
1767.89	143
1768.3	123
1768.71	113
1769.13	117
1769.54	143
1769.95	121
1770.37	103
1770.78	139
1771.19	119
1771.61	173
1772.02	69
1772.43	153
1772.85	109
1773.26	127
1773.67	131
1774.09	121
1774.5	123
1774.91	101
1775.32	145
1775.74	87
1776.15	149
1776.56	67
1776.97	159
1777.39	135
1777.8	137
1778.21	121
1778.62	123
1779.04	117
1779.45	103
1779.86	139
1780.28	103
1780.69	169
1781.1	83
1781.51	163
1781.92	109
1782.34	117
1782.75	149
1783.16	97
1783.57	125
1783.99	111
1784.4	141
1784.81	107
1785.22	113
1785.63	103
1786.05	135
1786.46	139
1786.87	101
1787.28	127
1787.69	91
1788.11	145
1788.52	131
1788.93	113
1789.34	159
1789.75	101
1790.17	101
1790.58	131
1790.99	127
1791.4	139
1791.81	91
1792.22	123
1792.63	125
1793.05	151
1793.46	95
1793.87	161
1794.28	105
1794.69	137
1795.1	133
1795.52	101
1795.93	155
1796.34	87
1796.75	149
1797.16	135
1797.57	137
1797.98	99
1798.39	155
1798.81	91
1799.22	129
1799.63	119
1800.04	115
1800.45	153
1800.86	51
1801.27	155
1801.68	119
1802.09	141
1802.5	105
1802.91	141
1803.32	95
1803.73	141
1804.15	131
1804.56	119
1804.97	153
1805.38	79
1805.79	173
1806.2	123
1806.61	141
1807.02	113
1807.43	121
1807.84	111
1808.25	147
1808.66	131
1809.07	99
1809.48	111
1809.89	95
1810.3	145
1810.71	113
1811.12	103
1811.53	129
1811.94	109
1812.35	131
1812.76	127
1813.17	103
1813.58	151
1813.99	83
1814.4	147
1814.81	115
1815.22	149
1815.63	97
1816.04	139
1816.45	105
1816.86	129
1817.27	129
1817.68	61
1818.09	161
1818.5	65
1818.91	149
1819.32	99
1819.73	145
1820.14	131
1820.55	119
1820.96	125
1821.37	127
1821.78	135
1822.19	61
1822.6	155
1823.01	81
1823.42	153
1823.82	103
1824.23	133
1824.64	135
1825.05	121
1825.46	107
1825.87	135
1826.28	127
1826.69	87
1827.1	137
1827.51	91
1827.91	179
1828.32	85
1828.73	125
1829.14	131
1829.55	123
1829.96	137
1830.37	123
1830.78	125
1831.18	127
1831.59	113
1832	119
1832.41	127
1832.82	117
1833.23	123
1833.64	147
1834.05	111
1834.45	117
1834.86	135
1835.27	105
1835.68	155
1836.09	75
1836.49	135
1836.9	117
1837.31	117
1837.72	113
1838.13	129
1838.53	111
1838.94	89
1839.35	145
1839.76	91
1840.17	173
1840.58	71
1840.98	141
1841.39	119
1841.8	117
1842.21	143
1842.61	91
1843.02	127
1843.43	83
1843.84	145
1844.25	105
1844.65	159
1845.06	65
1845.47	169
1845.88	123
1846.28	132.996
1846.69	140.686
1847.1	95.7538
1847.51	116.927
1847.91	107.057
1848.32	146.189
1848.73	118.396
1849.14	120.945
1849.54	84.4123
1849.95	148.961
1850.36	115.582
1850.77	109.296
1851.17	135.765
1851.58	109.907
1851.99	118.117
1852.39	107.016
1852.8	125.589
1853.21	130.936
1853.62	98.2051
1854.02	102.77
1854.43	131.017
1854.84	121.706
1855.24	124.514
1855.65	114.811
1856.06	123.486
1856.46	114.996
1856.87	131.228
1857.28	106.95
1857.68	140.919
1858.09	103.331
1858.5	123.692
1858.9	130.591
1859.31	113.1
1859.72	151.124
1860.12	83.1741
1860.53	150.628
1860.94	97.5955
1861.34	152.839
1861.75	105.743
1862.15	139.721
1862.56	108.273
1862.97	111.07
1863.37	136.745
1863.78	108.255
1864.19	145.321
1864.59	64.2113
1865	153.578
1865.4	101.731
1865.81	146.664
1866.22	112.306
1866.62	127.098
1867.03	110.32
1867.43	111.438
1867.84	128.135
1868.25	117.253
1868.65	152.842
1869.06	85.1466
1869.46	131.842
1869.87	118.803
1870.28	137.284
1870.68	121.231
1871.09	122.848
1871.49	128.834
1871.9	135.487
1872.3	126.033
1872.71	134.045
1873.12	127.966
1873.52	111.286
1873.93	128.523
1874.33	122.745
1874.74	138.611
1875.14	128.466
1875.55	115.578
1875.95	120.121
1876.36	117.466
1876.76	116.281
1877.17	132.081
1877.57	108.322
1877.98	106.186
1878.38	107.36
1878.79	118.084
1879.19	132.611
1879.6	109.154
1880	94.7625
1880.41	120.896
1880.81	112.362
1881.22	109.41
1881.63	127.035
1882.03	112.245
1882.43	121.034
1882.84	130.492
1883.24	122.024
1883.65	132.315
1884.05	106.757
1884.46	109.494
1884.86	137.212
1885.27	102.438
1885.67	126.595
1886.08	115.661
1886.48	146.317
1886.89	109.514
1887.29	144.603
1887.69	82.7078
1888.1	120.133
1888.5	110.933
1888.85	89
1889.26	169
1889.67	85
1890.08	161
1890.49	91
1890.9	147
1891.3	125
1891.71	117
1892.12	105
1892.53	133
1892.94	137
1893.35	101
1893.76	157
1894.17	89
1894.58	143
1894.99	105
1895.4	133
1895.81	127
1896.22	107
1896.62	107
1897.03	141
1897.44	119
1897.85	119
1898.26	135
1898.67	95
1899.08	139
1899.49	109
1899.9	117
1900.3	135
1900.71	99
1901.12	95
1901.53	133
1901.94	115
1902.35	137
1902.75	107
1903.16	97
1903.57	127
1903.98	109
1904.39	107
1904.8	145
1905.21	91
1905.61	107
1906.02	147
1906.43	113
1906.84	153
1907.25	67
1907.66	141
1908.06	119
1908.47	155
1908.88	109
1909.29	131
1909.7	91
1910.1	105
1910.51	129
1910.92	85
1911.33	175
1911.73	59
1912.14	139
1912.55	101
1912.96	157
1913.37	119
1913.77	129
1914.18	115
1914.59	123
1915	141
1915.4	91
1915.81	159
1916.22	45
1916.63	153
1917.03	113
1917.44	127
1917.85	137
1918.26	113
1918.66	119
1919.07	141
1919.48	123
1919.89	131
1920.29	117
1920.7	67
1921.11	129
1921.51	111
1921.92	133
1922.33	119
1922.73	99
1923.14	125
1923.55	139
1923.96	105
1924.36	139
1924.77	101
1925.18	105
1925.58	133
1925.99	113
1926.4	125
1926.8	115
1927.21	105
1927.62	131
1928.02	131
1928.43	95
1928.84	161
1929.24	79
1929.65	133
1930.06	117
1930.46	137
1930.87	103
1931.28	105
1931.68	113
1932.09	113
1932.49	145
1932.9	67
1933.31	179
1933.71	67
1934.12	161
1934.53	99
1934.93	141
1935.34	141
1935.74	97
1936.15	137
1936.56	137
1936.96	133
1937.37	93
1937.78	165
1938.18	81
1938.59	155
1938.99	99
1939.4	127
1939.8	133
1940.21	121
1940.62	111
1941.02	139
1941.43	129
1941.83	123
1942.24	151
1942.64	103
1943.05	147
1943.45	89
1943.86	125
1944.27	155
1944.67	105
1945.08	109
1945.48	127
1945.89	107
1946.29	153
1946.7	101
1947.1	111
1947.51	129
1947.91	91
1948.32	117
1948.72	141
1949.13	103
1949.53	113
1949.94	135
1950.34	105
1950.75	145
1951.15	71
1951.56	133
1951.96	111
1952.37	121
1952.77	111
1953.18	129
1953.58	113
1953.99	117
1954.39	135
1954.8	87
1955.2	171
1955.61	71
1956.01	147
1956.42	115
1956.82	109
1957.23	123
1957.63	111
1958.03	111
1958.44	93
1958.84	137
1959.25	91
1959.65	161
1960.06	69
1960.46	151
1960.86	129
1961.27	137
1961.67	137
1962.08	105
1962.48	135
1962.89	125
1963.29	153
1963.69	107
1964.1	151
1964.5	81
1964.91	153
1965.31	109
1965.71	125
1966.12	127
1966.52	91
1966.93	125
1967.33	117
1967.73	131
1968.14	119
1968.54	129
1968.94	87
1969.35	139
1969.75	113
1970.15	125
1970.56	131
1970.96	95
1971.37	125
1971.77	115
1972.17	113
1972.58	155
1972.98	99
1973.38	109
1973.79	133
1974.19	137
1974.59	123
1974.99	109
1975.4	113
1975.8	129
1976.21	151
1976.61	109
1977.01	173
1977.41	87
1977.82	123
1978.22	135
1978.62	131
1979.03	135
1979.43	93
1979.83	127
1980.24	127
1980.64	155
1981.04	105
1981.44	173
1981.85	85
1982.25	133
1982.65	115
1983.05	117
1983.46	143
1983.86	73
1984.26	147
1984.66	111
1985.07	137
1985.47	73
1985.87	163
1986.27	89
1986.68	151
1987.08	127
1987.48	135
1987.88	159
1988.29	65
1988.69	153
1989.09	115
1989.49	155
1989.89	93
1990.3	135
1990.7	91
1991.1	151
1991.5	129
1991.9	129
1992.31	137
1992.71	75
1993.11	151
1993.51	119
1993.91	117
1994.32	109
1994.72	101
1995.12	127
1995.52	149
1995.92	101
1996.32	131
1996.73	129
1997.13	107
1997.53	135
1997.93	155
1998.33	107
1998.73	131
1999.14	97
1999.54	127
1999.94	135
2000.34	111
2000.74	131
2001.14	113
2001.54	135
2001.94	121
2002.35	155
2002.75	89
2003.15	165
2003.55	93
2003.95	131
2004.35	125
2004.75	119
2005.15	159
2005.55	103
2005.96	135
2006.36	111
2006.76	153
2007.16	113
2007.56	165
2007.96	85
2008.36	153
2008.76	121
2009.16	103
2009.56	177
2009.96	75
2010.36	155
2010.76	95
2011.16	139
2011.57	117
2011.97	143
2012.37	103
2012.77	147
2013.17	111
2013.57	115
2013.97	175
2014.37	87
2014.77	175
2015.17	121
2015.57	117
2015.97	137
2016.37	101
2016.77	101
2017.17	137
2017.57	125
2017.97	119
2018.37	123
2018.77	103
2019.17	115
2019.57	109
2019.97	101
2020.37	139
2020.77	105
2021.17	101
2021.57	137
2021.97	113
2022.37	155
2022.77	75
2023.17	131
2023.57	125
2023.97	131
2024.37	97
2024.77	137
2025.17	105
2025.57	113
2025.97	139
2026.37	119
2026.77	147
2027.16	69
2027.56	149
2027.96	113
2028.36	153
2028.76	101
2029.16	145
2029.56	89
2029.96	131
2030.36	113
2030.76	105
2031.16	173
2031.56	47
2031.96	153
2032.35	95
2032.75	139
2033.15	99
2033.55	139
2033.95	97
2034.35	127
2034.75	133
2035.15	103
2035.54	163
2035.94	59
2036.34	149
2036.74	123
2037.14	145
2037.54	111
2037.94	111
2038.34	109
2038.74	143
2039.13	137
2039.53	123
2039.93	129
2040.33	83
2040.73	143
2041.12	129
2041.52	105
2041.92	111
2042.32	105
2042.72	141
2043.12	131
2043.51	95
2043.91	153
2044.31	109
2044.71	115
2045.11	139
2045.51	115
2045.9	113
2046.3	115
2046.7	87
2047.1	127
2047.49	131
2047.89	83
2048.29	157
2048.69	93
2049.09	127
2049.48	123
2049.88	151
2050.28	111
2050.68	123
2051.07	73
2051.47	115
2051.87	135
2052.27	85
2052.67	173
2053.06	75
2053.46	169
2053.86	111
2054.26	141
2054.65	109
2055.05	115
2055.45	121
2055.85	125
2056.24	147
2056.64	61
2057.04	169
2057.43	63
2057.83	151
2058.23	87
2058.62	139
2059.02	133
2059.42	99
2059.82	109
2060.21	109
2060.61	143
2061.01	109
2061.4	151
2061.8	93
2062.2	157
2062.59	113
2062.99	119
2063.39	135
2063.79	99
2064.18	123
2064.58	121
2064.97	135
2065.37	131
2065.77	129
2066.16	121
2066.56	157
2066.96	103
2067.35	123
2067.75	139
2068.15	111
2068.54	119
2068.94	149
2069.34	107
2069.73	147
2070.13	85
2070.52	113
2070.92	117
2071.32	95
2071.71	125
2072.11	137
2072.51	113
2072.9	107
2073.3	121
2073.69	91
2074.09	175
2074.49	59
2074.88	153
2075.28	105
2075.67	121
2076.07	133
2076.47	123
2076.86	117
2077.26	117
2077.65	159
2078.05	95
2078.44	173
2078.84	65
2079.23	163
2079.63	105
2080.03	115
2080.42	145
2080.82	83
2081.21	141
2081.61	107
2082	157
2082.4	115
2082.79	139
2083.19	75
2083.58	145
2083.98	101
2084.37	111
2084.77	145
2085.16	99
2085.56	145
2085.95	111
2086.35	129
2086.74	123
2087.14	109
2087.53	81
2087.93	165
2088.32	127
2088.72	139
2089.11	141
2089.51	93
2089.9	129
2090.3	117
2090.69	109
2091.09	131
2091.48	91
2091.88	107
2092.27	133
2092.67	123
2093.06	131
2093.46	95
2093.85	119
2094.25	131
2094.64	145
2095.03	87
2095.43	167
2095.82	77
2096.22	129
2096.61	135
2097.01	119
2097.4	137
2097.79	73
2098.19	123
2098.58	131
2098.98	145
2099.37	75
2099.76	163
2100.16	71
2100.55	159
2100.95	131
2101.34	111
2101.73	159
2102.13	77
2102.52	165
2102.92	123
2103.31	141
2103.7	83
2104.1	139
2104.49	87
2104.88	153
2105.28	109
2105.67	123
2106.07	143
2106.46	79
2106.85	135
2107.25	119
2107.64	133
2108.03	101
2108.43	123
2108.82	111
2109.21	149
2109.61	117
2110	131
2110.39	139
2110.79	101
2111.18	129
2111.57	109
2111.97	123
2112.36	105
2112.75	105
2113.15	111
2113.54	157
2113.93	113
2114.32	113
2114.72	127
2115.11	125
2115.5	139
2115.9	147
2116.29	97
2116.68	145
2117.08	95
2117.47	119
2117.86	125
2118.25	89
2118.65	141
2119.04	91
2119.43	129
2119.82	101
2120.22	147
2120.61	79
2121	145
2121.39	73
2121.79	133
2122.18	145
2122.57	95
2122.96	175
2123.36	69
2123.75	129
2124.14	103
2124.53	155
2124.93	121
2125.32	143
2125.71	93
2126.1	161
2126.49	149
2126.89	103
2127.28	175
2127.67	57
2128.06	145
2128.45	83
2128.85	139
2129.24	107
2129.63	143
2130.02	103
2130.41	133
2130.81	111
2131.2	103
2131.59	167
2131.98	69
2132.37	159
2132.76	71
2133.16	129
2133.55	119
2133.94	103
2134.33	99
2134.72	135
2135.11	135
2135.5	125
2135.9	135
2136.29	83
2136.68	145
2137.07	107
2137.46	127
2137.85	149
2138.24	101
2138.63	123
2139.03	135
2139.42	123
2139.81	149
2140.2	107
2140.59	127
2140.98	131
2141.37	117
2141.76	113
2142.15	151
2142.55	105
2142.94	101
2143.33	143
2143.72	103
2144.11	163
2144.5	95
2144.89	139
2145.28	115
2145.67	107
2146.06	117
2146.45	131
2146.84	107
2147.23	121
2147.62	149
2148.02	105
2148.4	165
2148.8	65
2149.19	135
2149.58	99
2149.97	133
2150.36	103
2150.75	131
2151.14	113
2151.53	111
2151.92	139
2152.31	101
2152.7	173
2153.09	41
2153.48	165
2153.87	97
2154.26	139
2154.65	123
2155.04	95
2155.43	129
2155.82	117
2156.21	151
2156.6	107
2156.99	153
2157.38	63
2157.77	145
2158.16	109
2158.55	125
2158.94	127
2159.33	101
2159.72	139
2160.11	125
2160.5	113
2160.89	119
2161.28	123
2161.66	75
2162.05	137
2162.44	111
2162.83	119
2163.22	113
2163.61	115
2164	131
2164.39	131
2164.78	103
2165.17	153
2165.56	107
2165.95	103
2166.34	133
2166.73	121
2167.11	121
2167.5	97
2167.89	119
2168.28	145
2168.67	141
2169.06	105
2169.45	179
2169.84	79
2170.23	129
2170.62	127
2171	137
2171.39	123
2171.78	93
2172.17	111
2172.56	91
2172.95	141
2173.34	67
2173.73	175
2174.11	75
2174.5	167
2174.89	127
2175.28	125
2175.67	129
2176.06	91
2176.45	143
2176.83	115
2177.22	163
2177.61	87
2178	155
2178.39	87
2178.78	137
2179.16	109
2179.55	107
2179.94	147
2180.33	71
2180.72	135
2181.1	129
2181.49	145
2181.88	99
2182.27	123
2182.66	101
2183.04	127
2183.43	103
2183.82	125
2184.21	135
2184.6	89
2184.98	133
2185.37	129
2185.76	105
2186.15	111
2186.53	101
2186.92	101
2187.31	125
2187.7	87
2188.08	113
2188.47	125
2188.86	97
2189.25	123
2189.63	147
2190.02	115
2190.41	155
2190.8	81
2191.18	125
2191.57	131
2191.96	103
2192.34	127
2192.73	103
2193.12	111
2193.51	101
2193.89	137
2194.28	87
2194.67	155
2195.06	49
2195.44	139
2195.83	109
2196.22	97
2196.6	143
2196.99	69
2197.38	141
2197.76	91
2198.15	149
2198.54	103
2198.92	143
2199.31	79
2199.7	145
2200.08	111
2200.47	105
2200.86	153
2201.24	87
2201.63	177
2202.02	97
2202.4	137
2202.79	119
2203.18	131
2203.56	83
2203.95	133
2204.34	113
2204.72	111
2205.11	151
2205.49	69
2205.88	133
2206.27	109
2206.65	125
2207.04	115
2207.43	99
2207.81	91
2208.2	135
2208.58	101
2208.97	131
2209.36	131
2209.74	95
2210.13	125
2210.51	111
2210.9	131
2211.29	133
2211.67	95
2212.06	113
2212.44	139
2212.83	119
2213.21	149
2213.6	83
2213.98	129
2214.37	123
2214.76	139
2215.14	89
2215.53	149
2215.91	91.007
2216.3	138.303
2216.69	124.983
2217.07	108.369
2217.46	140.429
2217.84	58.7156
2218.23	134.675
2218.61	102.588
2219	145.398
2219.38	108.924
2219.77	115.52
2220.15	82.4818
2220.54	109.734
2220.92	132.261
2221.31	92.0284
2221.69	158.556
2222.08	43.9563
2222.46	147.942
2222.85	112.157
2223.23	134.626
2223.62	121.836
2224	128.413
2224.39	111.586
2224.77	112.584
2225.16	118.921
2225.54	104.574
2225.93	142.982
2226.31	62.0412
2226.7	134.501
2227.08	118.825
2227.47	129.648
2227.85	118.805
2228.23	115.683
2228.62	123.54
2229	130.076
2229.39	119.565
2229.77	119.225
2230.16	122.452
2230.54	85.6841
2230.92	138.507
2231.31	132.652
2231.69	123.454
2232.08	119.423
2232.46	100.144
2232.85	138.674
2233.23	121.932
2233.62	105.292
2234	130.07
2234.38	102.773
2234.77	109.341
2235.15	125.887
2235.54	134.95
2235.92	128.017
2236.3	117.499
2236.69	102.791
2237.07	121.808
2237.46	128.08
2237.84	123.429
2238.22	134.478
2238.61	98.08
2238.99	109.493
2239.37	122.129
2239.76	129.066
2240.14	127.785
2240.53	114.32
2240.91	96.5922
2241.29	122.257
2241.68	128.229
2242.06	105.931
2242.44	117.175
2242.83	108.736
2243.21	116.706
2243.59	129.531
2243.98	120.51
2244.36	116.699
2244.74	121.194
2245.13	83.3822
2245.51	143.531
2245.89	117.135
2246.28	121.893
2246.66	114.485
2247.04	102.845
2247.43	118.694
2247.81	128.825
2248.19	127.08
2248.58	102.777
2248.96	140.062
2249.34	73.4955
2249.73	144.705
2250.11	98.8926
2250.49	133.47
2250.88	131.669
2251.26	112.123
2251.64	124.156
2252.02	135.772
2252.41	126.683
2252.79	109.572
2252.8	109
2253.18	131
2253.57	79
2253.96	151
2254.35	111
2254.74	117
2255.12	119
2255.51	91
2255.9	125
2256.29	131
2256.67	119
2257.06	125
2257.45	99
2257.84	113
2258.22	113
2258.61	129
2259	93
2259.39	123
2259.77	109
2260.16	111
2260.55	135
2260.94	81
2261.32	151
2261.71	67
2262.1	139
2262.48	139
2262.87	153
2263.26	111
2263.65	119
2264.03	105
2264.42	121
2264.81	131
2265.19	77
2265.58	161
2265.97	75
2266.35	141
2266.74	123
2267.13	151
2267.51	107
2267.9	97
2268.29	119
2268.67	129
2269.06	139
2269.45	59
2269.83	165
2270.22	83
2270.61	153
2270.99	97
2271.38	121
2271.77	115
2272.15	105
2272.54	133
2272.93	123
2273.31	133
2273.7	83
2274.08	163
2274.47	81
2274.86	141
2275.24	97
2275.63	115
2276.02	147
2276.4	99
2276.79	119
2277.17	125
2277.56	131
2277.95	113
2278.33	147
2278.72	113
2279.1	141
2279.49	85
2279.88	123
2280.26	147
2280.65	105
2281.03	135
2281.42	145
2281.8	103
2282.19	137
2282.58	99
2282.96	131
2283.35	137
2283.73	109
2284.12	125
2284.5	141
2284.89	119
2285.28	113
2285.66	141
2286.05	93
2286.43	149
2286.82	89
2287.2	141
2287.59	115
2287.97	117
2288.36	121
2288.74	123
2289.13	121
2289.51	101
2289.9	133
2290.28	81
2290.67	173
2291.05	71
2291.44	169
2291.82	103
2292.21	125
2292.59	133
2292.98	111
2293.36	107
2293.75	91
2294.13	149
2294.52	119
2294.9	169
2295.29	43
2295.67	155
2296.06	103
2296.44	143
2296.83	139
2297.21	91
2297.6	121
2297.98	123
2298.36	135
2298.75	105
2299.13	125
2299.52	75
2299.9	151
2300.29	99
2300.67	119
2301.06	133
2301.44	97
2301.82	117
2302.21	117
2302.59	123
2302.98	129
2303.36	123
2303.75	91
2304.13	149
2304.51	115
2304.9	119
2305.28	137
2305.67	95
2306.05	143
2306.44	147
2306.82	121
2307.2	159
2307.59	103
2307.97	109
2308.35	133
2308.74	121
2309.12	123
2309.51	107
2309.89	91
2310.27	129
2310.66	151
2311.04	97
2311.42	167
2311.81	85
2312.19	133
2312.57	113
2312.96	133
2313.34	119
2313.73	81
2314.11	111
2314.49	139
2314.88	161
2315.26	75
2315.64	189
2316.03	65
2316.41	155
2316.79	113
2317.18	115
2317.56	139
2317.94	95
2318.32	149
2318.71	121
2319.09	133
2319.47	85
2319.86	169
2320.24	83
2320.62	161
2321.01	115
2321.39	121
2321.77	137
2322.15	91
2322.54	139
2322.92	123
2323.3	143
2323.69	91
2324.07	145
2324.45	101
2324.83	153
2325.22	81
2325.6	123
2325.98	135
2326.36	85
2326.75	139
2327.13	119
2327.51	145
2327.89	105
2328.28	103
2328.66	87
2329.04	161
2329.42	121
2329.81	127
2330.19	129
2330.57	95
2330.95	151
2331.33	131
2331.72	105
2332.1	149
2332.48	111
2332.86	117
2333.24	121
2333.63	89
2334.01	129
2334.39	115
2334.77	103
2335.15	113
2335.54	143
2335.92	101
2336.3	151
2336.68	85
2337.06	141
2337.44	133
2337.83	97
2338.21	141
2338.59	95
2338.97	131
2339.35	105
2339.73	163
2340.12	107
2340.5	163
2340.88	79
2341.26	147
2341.64	139
2342.02	111
2342.41	157
2342.79	97
2343.17	147
2343.55	105
2343.93	153
2344.31	87
2344.69	167
2345.07	81
2345.45	153
2345.84	105
2346.22	125
2346.6	167
2346.98	85
2347.36	137
2347.74	93
2348.12	165
2348.5	111
2348.88	157
2349.26	75
2349.65	165
2350.03	145
2350.41	111
2350.79	147
2351.17	93
2351.55	133
2351.93	107
2352.31	151
2352.69	137
2353.07	117
2353.45	87
2353.83	129
2354.21	125
2354.59	125
2354.98	143
2355.35	93
2355.74	133
2356.12	115
2356.5	101
2356.88	161
2357.26	109
2357.64	91
2358.02	127
2358.4	117
2358.78	145
2359.16	97
2359.54	121
2359.92	119
2360.3	131
2360.68	85
2361.06	155
2361.44	61
2361.82	115
2362.2	131
2362.58	133
2362.96	137
2363.34	83
2363.72	127
2364.1	111
2364.48	151
2364.86	87
2365.24	175
2365.62	67
2366	157
2366.38	137
2366.75	141
2367.14	159
2367.51	61
2367.89	179
2368.27	109
2368.65	145
2369.03	87
2369.41	145
2369.79	97
2370.17	149
2370.55	137
2370.93	121
2371.31	157
2371.69	81
2372.07	149
2372.45	137
2372.83	135
2373.2	111
2373.58	117
2373.96	99
2374.34	143
2374.72	123
2375.1	127
2375.48	159
2375.86	115
2376.24	139
2376.61	131
2376.99	133
2377.37	131
2377.75	123
2378.13	117
2378.51	151
2378.89	113
2379.27	153
2379.65	129
2380.02	113
2380.4	131
2380.78	141
2381.16	93
2381.54	145
2381.92	99
2382.3	145
2382.67	145
2383.05	99
2383.43	125
2383.81	93
2384.19	125
2384.57	97
2384.94	149
2385.32	83
2385.7	173
2386.08	73
2386.46	143
2386.83	115
2387.21	111
2387.59	137
2387.97	83
2388.35	157
2388.73	79
2389.1	141
2389.48	95
2389.86	171
2390.24	73
2390.62	147
2390.99	119
2391.37	105
2391.75	161
2392.13	73
2392.5	147
2392.88	109
2393.26	159
2393.64	121
2394.01	143
2394.39	59
2394.77	137
2395.15	139
2395.52	115
2395.9	129
2396.28	93
2396.66	151
2397.04	115
2397.41	131
2397.79	149
2398.17	117
2398.54	89
2398.92	143
2399.3	129
2399.68	111
2400.05	129
2400.43	109
2400.81	157
2401.18	147
2401.56	121
2401.94	151
2402.32	117
2402.69	131
2403.07	139
2403.45	123
2403.82	141
2404.2	95
2404.58	117
2404.95	131
2405.33	151
2405.71	111
2406.09	159
2406.46	85
2406.84	147
2407.22	137
2407.59	113
2407.97	151
2408.34	67
2408.72	141
2409.1	109
2409.47	151
2409.85	89
2410.23	153
2410.6	87
2410.98	139
2411.36	125
2411.73	107
2412.11	163
2412.49	65
2412.86	147
2413.24	117
2413.61	139
2413.99	95
2414.37	175
2414.74	119
2415.12	149
2415.5	133
2415.87	135
2416.25	159
2416.62	63
2417	163
2417.37	115
2417.75	167
2418.13	107
2418.5	139
2418.88	109
2419.25	157
2419.63	119
2420.01	127
2420.38	157
2420.76	85
2421.13	153
2421.51	125
2421.88	125
2422.26	127
2422.64	117
2423.01	135
2423.39	163
2423.76	115
2424.14	131
2424.51	135
2424.89	125
2425.26	161
2425.64	143
2426.01	111
2426.39	133
2426.76	107
2427.14	147
2427.52	129
2427.89	99
2428.26	155
2428.64	123
2429.02	143
2429.39	131
2429.77	159
2430.14	119
2430.52	147
2430.89	103
2431.26	125
2431.64	139
2432.02	95
2432.39	171
2432.77	105
2433.14	153
2433.51	123
2433.89	165
2434.26	119
2434.64	155
2435.01	113
2435.39	163
2435.76	149
2436.14	109
2436.51	207
2436.89	97
2437.26	207
2437.63	115
2438.01	191
2438.38	135
2438.76	161
2439.13	145
2439.51	191
2439.88	151
2440.26	113
2440.63	183
2441	101
2441.38	173
2441.75	101
2442.13	165
2442.5	155
2442.87	165
2443.25	123
2443.62	177
2444	161
2444.37	151
2444.74	177
2445.12	119
2445.49	175
2445.87	159
2446.24	135
2446.61	159
2446.99	123
2447.36	123
2447.73	155
2448.11	133
2448.48	171
2448.86	135
2449.23	149
2449.6	159
2449.98	143
2450.35	153
2450.72	189
2451.1	129
2451.47	143
2451.84	163
2452.22	155
2452.59	177
2452.97	131
2453.34	163
2453.71	129
2454.08	169
2454.46	133
2454.83	173
2455.2	109
2455.58	143
2455.95	163
2456.32	125
2456.7	191
2457.07	95
2457.44	187
2457.82	129
2458.19	189
2458.56	129
2458.93	163
2459.31	107
2459.68	151
2460.05	147
2460.43	111
2460.8	203
2461.17	83
2461.54	195
2461.92	137
2462.29	179
2462.66	145
2463.03	155
2463.41	113
2463.78	169
2464.15	151
2464.52	135
2464.9	157
2465.27	95
2465.64	167
2466.01	145
2466.39	159
2466.76	111
2467.13	127
2467.5	135
2467.88	161
2468.25	111
2468.62	135
2468.99	145
2469.37	97
2469.74	153
2470.11	147
2470.48	139
2470.85	141
2471.22	113
2471.6	139
2471.97	161
2472.34	131
2472.71	145
2473.08	135
2473.46	113
2473.83	145
2474.2	151
2474.57	121
2474.94	157
2475.32	107
2475.69	155
2476.06	145
2476.43	105
2476.8	177
2477.17	91
2477.55	153
2477.92	117
2478.29	159
2478.66	111
2479.03	145
2479.4	113
2479.77	145
2480.15	137
2480.52	93
2480.89	183
2481.26	89
2481.63	173
2482	117
2482.37	143
2482.74	123
2483.12	149
2483.49	103
2483.86	139
2484.23	141
2484.6	109
2484.97	175
2485.34	105
2485.71	159
2486.08	115
2486.46	145
2486.83	129
2487.2	123
2487.57	113
2487.94	147
2488.31	127
2488.68	107
2489.05	143
2489.42	105
2489.79	171
2490.16	95
2490.53	163
2490.9	147
2491.27	133
2491.64	121
2492.01	143
2492.38	129
2492.76	123
2493.13	135
2493.5	103
2493.87	143
2494.24	113
2494.61	113
2494.98	167
2495.35	109
2495.72	123
2496.09	129
2496.46	127
2496.83	147
2497.2	147
2497.57	123
2497.94	123
2498.31	117
2498.68	115
2499.05	165
2499.42	123
2499.79	109
2500.16	145
2500.53	109
2500.9	165
2501.27	87
2501.64	141
2502.01	125
2502.38	121
2502.75	119
2503.12	143
2503.49	115
2503.86	109
2504.23	143
2504.6	111
2504.97	163
2505.34	65
2505.7	139
2506.07	107
2506.44	135
2506.81	119
2507.18	127
2507.55	119
2507.92	125
2508.29	157
2508.66	115
2509.03	171
2509.4	75
2509.77	169
2510.14	113
2510.5	165
2510.88	155
2511.24	127
2511.61	117
2511.98	147
2512.35	169
2512.72	113
2513.09	167
2513.46	59
2513.83	161
2514.2	97
2514.56	141
2514.93	133
2515.3	93
2515.67	135
2516.04	139
2516.41	145
2516.78	123
2517.15	113
2517.51	93
2517.88	145
2518.25	137
2518.62	123
2518.99	141
2519.36	111
2519.73	129
2520.09	145
2520.46	95
2520.83	151
2521.2	87
2521.57	125
2521.94	155
2522.3	131
2522.67	127
2523.04	131
2523.41	117
2523.78	129
2524.15	127
2524.51	99
2524.88	157
2525.25	95
2525.62	135
2525.98	131
2526.35	151
2526.72	137
2527.09	113
2527.46	107
2527.83	135
2528.19	147
2528.56	71
2528.93	177
2529.3	67
2529.66	163
2530.03	99
2530.4	129
2530.77	117
2531.13	97
2531.5	131
2531.87	161
2532.24	137
2532.61	77
2532.97	177
2533.34	97
2533.71	167
2534.07	93
2534.44	141
2534.81	153
2535.18	119
2535.54	135
2535.91	131
2536.28	135
2536.65	97
2537.01	147
2537.38	83
2537.75	147
2538.11	105
2538.48	125
2538.85	141
2539.22	121
2539.58	97
2539.95	141
2540.32	115
2540.68	119
2541.05	111
2541.42	125
2541.78	133
2542.15	115
2542.52	135
2542.89	145
2543.25	103
2543.62	147
2543.99	153
2544.35	121
2544.72	149
2545.08	95
2545.45	155
2545.82	133
2546.19	109
2546.55	135
2546.92	145
2547.28	109
2547.65	121
2548.02	145
2548.38	115
2548.75	155
2549.12	87
2549.48	143
2549.85	111
2550.21	125
2550.58	121
2550.95	127
2551.31	109
2551.68	99
2552.05	145
2552.41	105
2552.78	157
2553.14	61
2553.51	147
2553.88	107
2554.24	147
2554.61	171
2554.97	105
2555.34	117
2555.71	119
2556.07	137
2556.44	93
2556.8	153
2557.17	69
2557.53	173
2557.9	133
2558.27	133
2558.63	149
2559	111
2559.36	133
2559.73	121
2560.09	145
2560.46	117
2560.82	137
2561.19	85
2561.55	165
2561.92	123
2562.29	135
2562.65	123
2563.02	101
2563.38	131
2563.75	127
2564.11	117
2564.48	133
2564.84	119
2565.21	93
2565.57	150.946
2565.94	130.566
2566.3	140.815
2566.67	135.661
2567.03	113.456
2567.4	150.869
2567.76	158.08
2568.13	122.69
2568.49	155.704
2568.86	75.7744
2569.22	127.345
2569.59	141.549
2569.95	130.893
2570.32	144.808
2570.68	112.24
2571.05	145.77
2571.41	136.172
2571.78	159.604
2572.14	82.8957
2572.51	166.895
2572.87	87.7694
2573.23	146.75
2573.6	129.978
2573.96	116.1
2574.33	148.713
2574.69	101.461
2575.06	134.088
2575.42	121.608
2575.79	160.429
2576.15	98.9361
2576.51	155.715
2576.88	89.823
2577.24	149.381
2577.61	120.359
2577.97	124.072
2578.34	148.392
2578.7	98.3194
2579.06	133.623
2579.43	118.23
2579.79	143.193
2580.16	107.338
2580.52	148.676
2580.88	104.051
2581.25	146.524
2581.61	137.409
2581.98	123.755
2582.34	147.173
2582.7	105.281
2583.07	146.101
2583.43	127.787
2583.8	136.488
2584.16	119.233
2584.52	142.183
2584.89	120.886
2585.25	134.327
2585.61	134.887
2585.98	125.702
2586.34	139.929
2586.7	123.22
2587.07	123.521
2587.43	143.379
2587.8	115.036
2588.16	135.191
2588.52	126.729
2588.88	120.011
2589.25	122.692
2589.61	133.84
2589.97	131.284
2590.34	139.142
2590.7	126.416
2591.06	125.691
2591.43	142.978
2591.79	134.146
2592.15	128.338
2592.52	135.073
2592.88	101.635
2593.24	125.304
2593.61	134.212
2593.97	138.677
2594.33	148.5
2594.7	109.071
2595.06	134.151
2595.42	132.224
2595.78	149.154
2596.15	105.188
2596.51	158.074
2596.87	105.921
2597.24	125.14
2597.6	137.496
2597.96	121.199
2598.32	167.275
2598.69	97.121
2599.05	146.113
2599.41	132.653
2599.78	173.18
2600.14	123.166
2600.5	157.417
2600.86	113.199
2600.95	95
2601.31	155
2601.68	155
2602.05	125
2602.42	159
2602.78	69
2603.15	183
2603.52	121
2603.89	175
2604.25	129
2604.62	151
2604.99	121
2605.35	171
2605.72	161
2606.09	135
2606.46	163
2606.82	85
2607.19	183
2607.56	131
2607.92	143
2608.29	107
2608.66	165
2609.03	117
2609.39	179
2609.76	133
2610.13	143
2610.49	189
2610.86	115
2611.23	183
2611.59	147
2611.96	163
2612.33	133
2612.69	147
2613.06	155
2613.43	173
2613.79	145
2614.16	143
2614.53	163
2614.89	117
2615.26	171
2615.62	167
2615.99	149
2616.36	163
2616.72	123
2617.09	145
2617.46	181
2617.82	147
2618.19	165
2618.56	151
2618.92	167
2619.29	173
2619.65	181
2620.02	121
2620.39	201
2620.75	131
2621.12	181
2621.48	185
2621.85	151
2622.22	193
2622.58	123
2622.95	179
2623.31	145
2623.68	207
2624.04	157
2624.41	215
2624.78	109
2625.14	199
2625.51	163
2625.87	145
2626.24	223
2626.6	135
2626.97	201
2627.34	159
2627.7	189
2628.07	151
2628.43	219
2628.8	135
2629.16	195
2629.53	197
2629.9	151
2630.26	217
2630.63	157
2630.99	225
2631.36	165
2631.72	257
2632.09	185
2632.45	225
2632.82	177
2633.18	219
2633.55	199
2633.91	155
2634.28	241
2634.64	173
2635.01	233
2635.37	173
2635.74	219
2636.1	205
2636.47	223
2636.83	191
2637.2	221
2637.56	205
2637.93	207
2638.29	263
2638.66	185
2639.02	259
2639.39	207
2639.75	253
2640.12	255
2640.48	217
2640.84	201
2641.21	279
2641.57	237
2641.94	257
2642.3	239
2642.67	251
2643.03	255
2643.4	225
2643.76	253
2644.13	299
2644.49	247
2644.85	247
2645.22	273
2645.58	267
2645.95	261
2646.31	281
2646.68	287
2647.04	237
2647.4	281
2647.77	289
2648.13	301
2648.5	261
2648.86	269
2649.22	341
2649.59	295
2649.95	329
2650.32	273
2650.68	331
2651.04	291
2651.41	359
2651.77	287
2652.14	353
2652.5	291
2652.86	351
2653.23	359
2653.59	341
2653.95	391
2654.32	289
2654.68	381
2655.05	333
2655.41	387
2655.77	337
2656.14	383
2656.5	335
2656.86	383
2657.23	409
2657.59	361
2657.95	417
2658.32	381
2658.68	423
2659.04	413
2659.41	437
2659.77	391
2660.13	449
2660.5	389
2660.86	475
2661.22	403
2661.59	445
2661.95	473
2662.31	447
2662.68	475
2663.04	431
2663.4	565
2663.76	441
2664.13	457
2664.49	461
2664.85	493
2665.22	499
2665.58	477
2665.94	533
2666.3	477
2666.67	497
2667.03	485
2667.39	507
2667.76	521
2668.12	491
2668.48	521
2668.84	539
2669.21	523
2669.57	519
2669.93	513
2670.29	535
2670.66	505
2671.02	535
2671.38	529
2671.74	517
2672.11	525
2672.47	581
2672.83	551
2673.19	513
2673.56	571
2673.92	567
2674.28	531
2674.64	553
2675	563
2675.37	525
2675.73	605
2676.09	473
2676.45	537
2676.81	565
2677.18	547
2677.54	531
2677.9	527
2678.26	555
2678.62	455
2678.99	575
2679.35	487
2679.71	573
2680.07	425
2680.43	563
2680.8	527
2681.16	533
2681.52	475
2681.88	485
2682.24	531
2682.6	477
2682.97	549
2683.33	485
2683.69	539
2684.05	429
2684.41	543
2684.77	491
2685.13	459
2685.5	525
2685.86	451
2686.22	501
2686.58	447
2686.94	501
2687.3	459
2687.66	465
2688.03	405
2688.39	483
2688.75	413
2689.11	445
2689.47	455
2689.83	401
2690.19	443
2690.55	395
2690.91	425
2691.28	419
2691.64	377
2692	391
2692.36	405
2692.72	401
2693.08	387
2693.44	385
2693.8	379
2694.16	337
2694.52	383
2694.88	299
2695.24	407
2695.61	331
2695.97	337
2696.33	331
2696.69	323
2697.05	345
2697.41	295
2697.77	357
2698.13	307
2698.49	333
2698.85	277
2699.21	367
2699.57	267
2699.93	305
2700.29	301
2700.65	283
2701.01	309
2701.37	269
2701.73	317
2702.09	263
2702.45	311
2702.81	233
2703.18	303
2703.53	243
2703.89	281
2704.25	247
2704.62	279
2704.98	299
2705.33	207
2705.69	301
2706.06	279
2706.42	279
2706.78	223
2707.13	289
2707.49	205
2707.85	261
2708.22	225
2708.57	221
2708.93	267
2709.29	171
2709.65	255
2710.01	241
2710.37	221
2710.73	195
2711.09	249
2711.45	219
2711.81	233
2712.17	221
2712.53	219
2712.89	231
2713.25	185
2713.61	217
2713.97	191
2714.33	205
2714.69	205
2715.05	195
2715.41	189
2715.76	207
2716.12	193
2716.48	219
2716.84	221
2717.2	189
2717.56	269
2717.92	221.5
2718.28	211.5
2718.64	207
2719	171
2719.35	191
2719.71	175
2720.07	159
2720.43	209
2720.79	145
2721.15	187
2721.51	171
2721.87	201
2722.23	141
2722.59	209
2722.94	129
2723.3	181
2723.66	181
2724.02	153
2724.38	221
2724.74	129
2725.1	191
2725.46	147
2725.81	183
2726.17	143
2726.53	207
2726.89	125
2727.25	189
2727.61	167
2727.96	155
2728.32	201
2728.68	137
2729.04	193
2729.4	147
2729.75	171
2730.11	151
2730.47	181
2730.83	121
2731.19	183
2731.55	143
2731.91	153
2732.26	189
2732.62	133
2732.98	185
2733.34	131
2733.69	187
2734.05	143
2734.41	169
2734.77	95
2735.13	175
2735.48	147
2735.84	145
2736.2	191
2736.56	139
2736.91	181
2737.27	155
2737.63	157
2737.99	175
2738.35	127
2738.7	137
2739.06	169
2739.42	165
2739.78	161
2740.13	151
2740.49	117
2740.85	149
2741.21	171
2741.56	125
2741.92	187
2742.28	91
2742.64	137
2742.99	159
2743.35	131
2743.71	151
2744.06	117
2744.42	141
2744.78	131
2745.14	175
2745.49	111
2745.85	175
2746.21	115
2746.57	149
2746.92	171
2747.28	143
2747.64	167
2747.99	95
2748.35	145
2748.71	139
2749.06	179
2749.42	111
2749.78	187
2750.13	89
2750.49	159
2750.85	139
2751.2	149
2751.56	153
2751.92	89
2752.27	151
2752.63	125
2752.99	145
2753.34	89
2753.7	173
2754.06	113
2754.41	185
2754.77	125
2755.13	141
2755.48	149
2755.84	97
2756.2	175
2756.55	121
2756.91	167
2757.26	115
2757.62	135
2757.98	113
2758.33	173
2758.69	121
2759.04	113
2759.4	165
2759.76	123
2760.11	151
2760.47	149
2760.83	117
2761.18	143
2761.54	141
2761.89	141
2762.25	133
2762.61	117
2762.96	139
2763.32	131
2763.67	121
2764.03	143
2764.38	153
2764.74	105
2765.1	141
2765.45	97
2765.81	129
2766.16	133
2766.52	115
2766.88	143
2767.23	143
2767.59	117
2767.94	139
2768.3	135
2768.65	103
2769.01	173
2769.36	91
2769.72	149
2770.07	145
2770.43	117
2770.78	133
2771.14	107
2771.49	115
2771.85	111
2772.21	163
2772.56	91
2772.92	171
2773.27	91
2773.63	139
2773.98	127
2774.34	117
2774.69	173
2775.05	105
2775.4	139
2775.76	101
2776.11	159
2776.47	101
2776.82	167
2777.18	79
2777.53	161
2777.89	121
2778.24	119
2778.59	147
2778.95	101
2779.3	153
2779.66	95
2780.01	157
2780.37	117
2780.72	149
2781.08	73
2781.43	157
2781.79	137
2782.14	145
2782.49	177
2782.85	119
2783.2	145
2783.56	105
2783.91	139
2784.27	109
2784.62	121
2784.98	105
2785.33	157
2785.68	121
2786.04	133
2786.39	145
2786.75	117
2787.1	155
2787.46	121
2787.81	141
2788.16	147
2788.52	137
2788.87	93
2789.22	135
2789.58	137
2789.93	129
2790.29	129
2790.64	105
2790.99	143
2791.35	135
2791.7	125
2792.06	153
2792.41	91
2792.76	135
2793.12	131
2793.47	123
2793.82	163
2794.18	101
2794.53	133
2794.88	133
2795.24	157
2795.59	103
2795.95	159
2796.3	91
2796.65	133
2797.01	121
2797.36	115
2797.71	165
2798.07	85
2798.42	153
2798.77	145
2799.13	159
2799.48	107
2799.83	171
2800.19	81
2800.54	139
2800.89	133
2801.24	115
2801.6	151
2801.95	77
2802.3	161
2802.66	133
2803.01	167
2803.36	99
2803.72	153
2804.07	79
2804.42	157
2804.77	145
2805.13	115
2805.48	143
2805.83	71
2806.19	161
2806.54	99
2806.89	151
2807.24	95
2807.6	163
2807.95	95
2808.3	143
2808.65	125
2809.01	125
2809.36	151
2809.71	99
2810.06	145
2810.42	133
2810.77	127
2811.12	123
2811.47	127
2811.83	115
2812.18	143
2812.53	135
2812.88	129
2813.24	137
2813.59	121
2813.94	143
2814.29	157
2814.64	113
2815	153
2815.35	93
2815.7	145
2816.05	145
2816.4	123
2816.76	137
2817.11	119
2817.46	121
2817.81	107
2818.16	147
2818.52	121
2818.87	153
2819.22	97
2819.57	161
2819.92	133
2820.28	125
2820.63	167
2820.98	111
2821.33	131
2821.68	105
2822.03	137
2822.39	81
2822.74	177
2823.09	89
2823.44	173
2823.79	127
2824.14	111
2824.49	167
2824.85	99
2825.2	153
2825.55	87
2825.9	159
2826.25	107
2826.6	185
2826.95	71
2827.31	163
2827.66	123
2828.01	111
2828.36	147
2828.71	97
2829.06	155
2829.41	103
2829.76	141
2830.11	117
2830.46	139
2830.82	87
2831.17	153
2831.52	129
2831.87	109
2832.22	139
2832.57	97
2832.92	165
2833.27	115
2833.62	127
2833.97	135
2834.32	125
2834.68	85
2835.03	159
2835.38	115
2835.73	139
2836.08	139
2836.43	107
2836.78	129
2837.13	123
2837.48	127
2837.83	127
2838.18	125
2838.53	87
2838.88	127
2839.23	125
2839.58	123
2839.93	119
2840.28	103
2840.63	135
2840.98	147
2841.33	107
2841.68	163
2842.03	87
2842.38	103
2842.73	139
2843.08	121
2843.43	141
2843.78	91
2844.13	121
2844.48	131
2844.83	145
2845.18	105
2845.53	177
2845.88	81
2846.23	153
2846.58	123
2846.93	115
2847.28	173
2847.63	81
2847.98	143
2848.33	95
2848.68	171
2849.03	97
2849.38	183
2849.73	95
2850.08	147
2850.43	131
2850.78	131
2851.13	143
2851.48	59
2851.83	139
2852.18	139
2852.53	157
2852.88	79
2853.23	149
2853.57	85
2853.92	141
2854.27	119
2854.62	119
2854.97	157
2855.32	69
2855.67	157
2856.02	123
2856.37	141
2856.72	97
2857.07	153
2857.42	101
2857.76	147
2858.11	113
2858.46	115
2858.81	143
2859.16	67
2859.51	157
2859.86	107
2860.21	131
2860.56	111
2860.91	93
2861.25	113
2861.6	141
2861.95	109
2862.3	127
2862.65	127
2863	103
2863.35	131
2863.69	123
2864.04	101
2864.39	129
2864.74	101
2865.09	121
2865.44	129
2865.78	101
2866.13	141
2866.48	111
2866.83	109
2867.18	127
2867.53	147
2867.88	89
2868.22	149
2868.57	95
2868.92	141
2869.27	125
2869.62	101
2869.96	141
2870.31	119
2870.66	127
2871.01	101
2871.36	143
2871.7	97
2872.05	161
2872.4	83
2872.75	133
2873.1	133
2873.44	107
2873.79	171
2874.14	99
2874.49	127
2874.84	85
2875.18	153
2875.53	105
2875.88	169
2876.23	75
2876.57	155
2876.92	123
2877.27	109
2877.62	153
2877.97	87
2878.31	159
2878.66	83
2879.01	167
2879.36	113
2879.7	129
2880.05	97
2880.4	149
2880.74	131
2881.09	113
2881.44	163
2881.79	81
2882.13	125
2882.48	101
2882.83	121
2883.18	129
2883.52	115
2883.87	89
2884.22	133
2884.56	143
2884.91	119
2885.26	121
2885.61	99
2885.95	131
2886.3	129
2886.65	111
2886.99	145
2887.34	89
2887.69	83
2888.03	143
2888.38	109
2888.73	127
2889.07	95
2889.42	113
2889.77	131
2890.11	145
2890.46	95
2890.81	143
2891.15	91
2891.5	125
2891.85	115
2892.19	129
2892.54	135
2892.89	99
2893.23	125
2893.58	117
2893.93	141
2894.27	79
2894.62	179
2894.96	69
2895.31	135
2895.66	125
2896	139
2896.35	154.82
2896.7	73.4933
2897.04	143.847
2897.39	113.191
2897.73	163.267
2898.08	79.1617
2898.43	160.719
2898.77	76.3932
2899.12	153.036
2899.46	109.795
2899.81	119.49
2900.16	137.865
2900.5	61.283
2900.85	137.219
2901.19	111.812
2901.54	144.738
2901.88	109.608
2902.23	145.537
2902.58	100.364
2902.92	132.705
2903.27	106.798
2903.61	113.258
2903.96	137.388
2904.31	96.8008
2904.65	113.763
2905	129.822
2905.34	128.002
2905.69	112.565
2906.03	120.645
2906.38	117.215
2906.72	129.835
2907.07	109.76
2907.42	166.174
2907.76	136.963
2908.11	172.888
2908.45	106.157
2908.8	128.561
2909.14	116.208
2909.49	144.55
2909.83	109.095
2910.18	125.095
2910.52	107.598
2910.87	108.206
2911.21	126.62
2911.56	126.725
2911.9	118.015
2912.25	93.8547
2912.59	144.958
2912.94	111.862
2913.28	151.281
2913.63	89.7918
2913.97	126.884
2914.32	114.292
2914.66	118.564
2915.01	126.931
2915.35	120.066
2915.7	132.499
2916.04	91.2747
2916.39	134.672
2916.73	107.563
2917.08	140.211
2917.42	106.134
2917.77	132.5
2918.11	127.483
2918.46	124.972
2918.8	129.106
2919.15	101.088
2919.49	124.139
2919.83	116.993
2920.18	137.845
2920.52	129.927
2920.87	136.293
2921.21	113.196
2921.56	114.721
2921.9	110.257
2922.24	128.785
2922.59	122.017
2922.93	98.5866
2923.28	119.618
2923.62	109.107
2923.97	122.893
2924.31	116.488
2924.65	117.57
2925	104.908
2925.34	134.166
2925.69	102.344
2926.03	132.84
2926.38	131.732
2926.72	104.84
2927.06	128.435
2927.41	103.87
2927.75	131.512
2928.09	119.34
2928.44	132.449
2928.78	112.325
2929.13	148.658
2929.47	90.623
2929.81	131.898
2930.16	112.779
2930.5	122.903
2930.79	145
2931.14	87
2931.49	119
2931.84	101
2932.19	157
2932.54	111
2932.88	167
2933.23	85
2933.58	147
2933.93	115
2934.28	121
2934.63	139
2934.97	87
2935.32	135
2935.67	105
2936.02	131
2936.37	95
2936.71	147
2937.06	65
2937.41	149
2937.76	103
2938.11	115
2938.46	143
2938.8	107
2939.15	147
2939.5	87
2939.85	155
2940.19	111
2940.54	145
2940.89	71
2941.24	155
2941.59	109
2941.93	113
2942.28	141
2942.63	87
2942.98	139
2943.32	127
2943.67	141
2944.02	131
2944.37	113
2944.72	109
2945.06	145
2945.41	117
2945.76	131
2946.11	121
2946.45	101
2946.8	127
2947.15	133
2947.49	97
2947.84	145
2948.19	107
2948.54	111
2948.88	151
2949.23	133
2949.58	125
2949.93	107
2950.27	123
2950.62	137
2950.97	147
2951.31	105
2951.66	169
2952.01	71
2952.35	115
2952.7	127
2953.05	139
2953.4	141
2953.74	95
2954.09	111
2954.44	139
2954.78	169
2955.13	89
2955.48	165
2955.82	69
2956.17	137
2956.52	99
2956.86	135
2957.21	119
2957.56	107
2957.9	139
2958.25	119
2958.6	147
2958.94	63
2959.29	165
2959.64	61
2959.98	163
2960.33	115
2960.68	137
2961.02	127
2961.37	95
2961.72	145
2962.06	135
2962.41	155
2962.76	93
2963.1	155
2963.45	65
2963.79	175
2964.14	91
2964.49	129
2964.83	143
2965.18	97
2965.52	127
2965.87	107
2966.22	129
2966.56	77
2966.91	143
2967.25	71
2967.6	155
2967.95	93
2968.29	115
2968.64	147
2968.98	109
2969.33	133
2969.68	127
2970.02	129
2970.37	89
2970.71	131
2971.06	115
2971.4	155
2971.75	93
2972.1	129
2972.44	139
2972.79	105
2973.13	123
2973.48	137
2973.82	103
2974.17	145
2974.51	111
2974.86	131
2975.21	133
2975.55	107
2975.9	103
2976.24	121
2976.59	107
2976.93	97
2977.28	163
2977.62	107
2977.97	173
2978.31	93
2978.66	127
2979	137
2979.35	109
2979.69	141
2980.04	119
2980.38	121
2980.73	103
2981.07	139
2981.42	89
2981.76	151
2982.11	55
2982.45	141
2982.8	105
2983.14	109
2983.49	133
2983.83	129
2984.18	117
2984.52	103
2984.87	123
2985.21	103
2985.56	157
2985.9	51
2986.25	163
2986.59	117
2986.94	145
2987.28	129
2987.62	109
2987.97	131
2988.31	113
2988.66	143
2989	97
2989.35	153
2989.69	49
2990.03	161
2990.38	99
2990.72	119
2991.07	143
2991.41	105
2991.76	121
2992.1	139
2992.44	141
2992.79	89
2993.13	121
2993.48	69
2993.82	153
2994.17	123
2994.51	107
2994.85	123
2995.2	91
2995.54	117
2995.89	127
2996.23	109
2996.57	143
2996.92	117
2997.26	67
2997.6	129
2997.95	109
2998.29	125
2998.64	117
2998.98	111
2999.32	117
2999.67	125
